;RAW4.00
[RawHeader]
Date=04/16/2025
EstimatedTotalTime=646.4
FurtherDQLReading=0
HardwareIndicator=65519
MeasuredTotalTime=6.53606
MeasurementFlag=1
NumberOfMeasuredRanges=1
NumberOfRanges=1
Time=10:07:06

[VarInfo]
Type=USER
Flags=0
Value=Lab Manager

[VarInfo]
Type=SAMPLEID
Flags=0
Value=Commander Sample ID

[VarInfo]
Type=COMMENT
Flags=0
Value=

[VarInfo]
Type=UTF
Flags=0
Value=

[VarInfo]
Type=CREATOR
Flags=0
Value=V5Converter

[VarInfo]
Type=CREATOR_VERSION
Flags=0
Value=3.3.35.0

[HardwareConfiguration]
AbsorptionFactor=9999
ActivateAbsorber=0
Alpha1=1.5406
Alpha2=1.54439
AlphaAverage=1.54184
AlphaRatio=0.5
Analyzer=0
Anode=Cu
AntiScatteringSlit=9999
BeamOpticsFlags=0
Beta=1.39222
BetaRelativeIntensity=0
DeactivateAbsorber=0
DetectorSlit=9999
DivergenceSlit=9999
GoniometerControl=0
GoniometerDiameter=282
GoniometerModel=256
GoniometerStage=0
Monochromator=0
NearSampleSlit=9999
PrimarySollerSlit=9999
SampleChanger=0
SecondSollerSlit=9999
SynchronousAxis=0
ThinFilmAttachment=9999
WaveUnit=A

[RangeHeader]
ActuallyUsedLambda=1.54184
AdditionalDetectorMask=257
DataRecordLength=4
DelayTime=0
DisplayPlaneNumber=0
EstimatedScanTime=646
ExtraParametersMask=0
GeneratorCurrent=10
GeneratorVoltage=30
Increment=0.0203875
Increment3=0
NumberOfCompletedData=2944
NumberOfCounts=1
NumberOfDetectors=0
NumberOfDrives=2
NumberOfEncoderDrives=0
NumberOfMeasuredData=2944
NumberOfVaryingParameters=0
RangeStartTime=0
RotationSpeed=0
ScanMode=1
ScanType=Locked Coupled
SimulatedMeasConditions=0
SlitChangerIn=0
SmootingWidth=0
Start=5.00111
Steps=2944
SynchronousRotation=0
Time=38.4

[VarInfo]
Type=PSD_DISCRIM
Flags=0
Value=0.11;0.25

[VarInfo]
Type=OPTICS_V5
Flags=0
Value=H4sIAAAAAAAEAO0c23LiOvJXXDyds1vBGANJphyfIsDMpk4YqECyM08pxQjQGV84viRh3/d/9ht2f2xbMjayfAkOkIQ5PCSFu2Wp1Td1t2Rpvz1bpvSIXY849kVFqdYqErYNZ0Ls2UUl8KcnSqvym659cWziWNjHbsexFo6Nbb+LfCTB27b36dkjF5W57y8+yfLT01P1Sa067kyu12qK/K1/PTLm2EInxPZ8ZBu4Er81efmtinRHPPJg4q/IwheVNR0xoos9wyULn03g+8IjpmNLfLsvrhMsrmAsmNsldmFmg4c/sOEPkT+/qMhd/EgMLPNv8K3S44bYjok8b9VFzBP5EiNrAcCOY/uI2Njl+pVXxEU9tA0/QGZERf2kXmueN2ryFbDJDSzaW5o0XRsBDycIusEj6AWZ5F+ITl2fItPDmpyH1r5Z5meCzckNhu6JQYFApI3ZL0+SdS2kh4p1hE2A6z0bhsQTTU5htHAGHOu7xFuYaKmnBaDJuY3T3ehfBl+/37N/3d6oc5PxcvQWFUzUUXo0HqtRqQx5qXgZsPaDIYEif/KXCxD42EXGDzpjQQGHLrGQu2TobBVctZAG8GxIIA1pHDxgjiHS6uWyeiknx04raRZ+UzVlL0UjbKGhApGgdZfI/jFwJ9i9wdTPYJgw09WPr8sbSrKcgg/HN7/fw7925/dSKs7zNVPJrzyYGnnEOsgGmBc/xogr2wcmRswVoKE9OB4JiQwH0+QEVKOijJ685KPEPzCVHrhkRmxkJhFKJZpcqLkgYz/w9EE8pwRYi15cPfedAOQIUhTg2goRazhvySAzhs6wZoqzKC7blGO0NHVcaYSRiUMd2NJ4ZW7ctBmnkNk2zLRy3ZMckrcr002QKEiQ52Hv2cf2hBr1h7HnEMIpVgKg9SkRvuMuY71WNDkN1DhiPImRF4onMhyYL8cHPQJrMg/V0mpFp8P1zWkqBx3Yl45jYgTBwq1NfMbdLgG50TjtmljEZ2yJQZ5e02TuSeviKQpM/w6ZAeaGWPUK3CM+uHmGvqhQj1Gh/ckcCdRxjJ0OE9ccmabztHYdAhxadubY+IEn6yYRQOsEnu9YVECURu5JCyPITWlrB77TcTHy8dB1Ftj1l9FgGZjETDymYVcT0PqvgfWAXV1RWqomC0CYxchAtg3Ws55GDKEcNUONXInkv/+JiawxCvvOBOu3YA1TWFJBNdlz5JrY0pFyPtl+Zx+eRg57y3Y3m3qavTmZiLrUWvGXcCn/RI/4Gtszf942F3OkCK5FRG/kYt7YeIfzpUcMZDKDGEy7TgAkRc7rf/+OLUWpNhu11vYGvSEr68WsrB86Kxvq+ZvwEiJ3NBOXvBT+0LmpnDXegpuXGALRPFZS5GHzUT2v1+tvwccb6utzGcmwB8fJdUhRbe6PhywnghfpkikwkEd9RO6NfBp5MCbFvOoE+2PVZ8cIPMhlIZphoYXALhH9EVkmKBxk/K1GSt+UfQTZjXSQ/QXbsFZAXCQUdiNwdkRcEAmG5Y5XBoK6lo/kteDOMf30AriCvo/M1ebrvcyPu1juau01gs/n2qYc7QSuC2ohcHQFPTyOWu21Jb0TR4fOE9sh4FnHYAfgk0Rm/i2hoTtnqPySVyiTHMJqacxpefvPgLiYpr366jetAaSRWpgfh4NSqtdeLAuT1XyM3Bn2P5topg9d/Jk806GK20VkvlAB2L62sHENAUS6cqC5XmnlDnJtTI6XDV0Ts+TC3FPMA4uzq1SiU5w+JIP54hBZiFfzokA+KhOiHjECyV7YZa4MBer9iIiJwOLooxd2zwz0WKA6FqiOBapjgepYoPqQ3DwWqI4FqmOB6ligOhaojgWqY4HqWKA6FqiOBapjgepYoPoZClRRDQp+iuWp6Gxd+ryaeO6z4DRvz1r4S1bAkaKCR7mTu73+cDC6D/+XObnLBo5VMfPsrszXlQoP1ip5B2vrb36wdrDoOJfO82A6ckwTuxnHa0NEwQFbroH0i4FsyQgPpEswlhQiw9PXv25bZkyQkvYwGegiN5HRfOtSY7JPQbbZR24T7ANV2Zydvx5u5bKeWblMh/bN3R/wPBx3w2nClg6nnudw1PdzOCyeYIochVOi4zGJX+R2AC31c8yE4nbkc9ZUZHgcEVnob8TG23sbrkdBrDm+Jnoh9DSbcfCA3Yy6oZtp7eMcOTOB8LOjtfozrafMzVppAVyg67/Q71ceMIwvEdsDg8ET+OE7EuIkubG+01eM+Msx+nSv1O7reVqeQL6k5ZkKnlbrfBJSPuoN9a89+QMSyh0pYK3UDt0/MJnNxWJFCNzVFympJNja0Ucpxam2JVjHrW3SoSCZD1PS9TOdhGMGEfe4J61PbGIFln6iVE/PT1vnqqI2zlp1VWme9v6u1s6A16sWIIln9iO/5arB+34tsynTdlA2zd3oIBN/Lm5vUNjh1XM4fu1g7ze1Sqits/Qy8fJCwJiZS2Jo3XkSl/lV5KBC1yjQ2DJwVfMC18ZWgSujMR22fjxm3tqBhydseHHgIo7Kwke+N2hCAi9DyxqhnkXf0Q+mUw/7eZrcfiYev8TEzd5gBUkRs14xViads4RUa7V6M2cdUauKopw3WmctJWPtOG1WW82aUldPVX69ELigr76vFm4hePXdBCMMIdGk+HaCuA33VXsX0gODbnjt4I4CkYaMkDCzRbl7CuI+tsmHREIO+q6CUnIt54BG9MaCUfkbC5L83fudBfFw+7i14Owdih20vGEiA88dc5JZXr1e2s94mXNE8/r712+97z12c0G3Lg3nyHvNZTiClcjxmGnDFlBFmV6kmfI1GLU8HK2foY/eEu/gqpx8wkXJ/nTXGZxtWLrIiEmLSxdlgkhYe6kLRebaDfXjqzSGDoFf1EdRBYhbeOUcU7c/vmd/JZxSNNRe92KU7ULMfW7G9N9pM0awxgQxedsx/TfejimkURRw0Y5M/6+1I6M0NnQ4p8ctmWMKVjYFy8vAWtV6XT07V0/rWRmY0lSqKuRvjdPmHjIw7jpEbPOXEa6OjiWBCS/LxeJhM+kkcgqeNKKHTTy2MFI5tA0De57jEuy9wuVGVKTdaxJT/ibD5PuvcbVRDwedc71SlKUvROzcs39lPE5Iz95zrjF2AbqXlOs8O4S6ta0oOvqZinXhwPuo09XKLBG+j4w5Ndn1TZkUvtJl+DU0g9kMT7ou1QgfW2Gxm3rVq4k+fnLGc/Z1yBpG0az1aIENMiVGeIafb5lGg8TS4xQPveG4ZQfNWR7SYPoRJY0aR9j3QXKexBtEfDVnRWrTLQ2vDwsoCe0q8naUu9whOf2OmpZBP3HgodxFvGNYiaLrVjVZgGv8Zn8ow0Rw64WHE7Nv9dX/DxhLPYYWWAAA

[PSD]
ActualTwoTheta=9999
FirstUsedChannel=0
FixedPSD=0
PSDOpening=5.87161
PSDType=5

[Drive]
DriveFlags=1
DriveName=2Theta
DriveNumber=2
DriveOffset=0
OffsetIndex=0
OscillationAmplitude=0
OscillationSpeed=0
StartPosition=5.00111

[Drive]
DriveFlags=1
DriveName=Theta
DriveNumber=1
DriveOffset=0
OffsetIndex=0
OscillationAmplitude=0
OscillationSpeed=0
StartPosition=2.50055

[Data]
     Angle,       PSD,
   5.00111,      8946,
   5.02149,      8680,
   5.04188,      8660,
   5.06227,      8284,
   5.08266,      8119,
   5.10304,      7881,
   5.12343,      7858,
   5.14382,      7774,
   5.16421,      7199,
   5.18459,      7194,
   5.20498,      6957,
   5.22537,      6711,
   5.24576,      6527,
   5.26614,      6347,
   5.28653,      6158,
   5.30692,      5937,
   5.32731,      5828,
   5.34769,      5515,
   5.36808,      5676,
   5.38847,      5380,
   5.40886,      5128,
   5.42924,      5011,
   5.44963,      4985,
   5.47002,      4702,
   5.49041,      4535,
   5.51079,      4451,
   5.53118,      4109,
   5.55157,      4232,
   5.57196,      4019,
   5.59234,      3858,
   5.61273,      3646,
   5.63312,      3638,
   5.65351,      3420,
   5.67389,      3536,
   5.69428,      3272,
   5.71467,      3146,
   5.73506,      3129,
   5.75544,      2993,
   5.77583,      2797,
   5.79622,      2820,
   5.81661,      2806,
     5.837,      2521,
   5.85738,      2499,
   5.87777,      2248,
   5.89816,      2291,
   5.91855,      2260,
   5.93893,      2157,
   5.95932,      2079,
   5.97971,      2111,
    6.0001,      1897,
   6.02048,      1897,
   6.04087,      1790,
   6.06126,      1822,
   6.08165,      1757,
   6.10203,      1625,
   6.12242,      1559,
   6.14281,      1553,
    6.1632,      1537,
   6.18358,      1503,
   6.20397,      1330,
   6.22436,      1266,
   6.24475,      1284,
   6.26513,      1231,
   6.28552,      1262,
   6.30591,      1194,
    6.3263,      1073,
   6.34668,       988,
   6.36707,      1015,
   6.38746,       988,
   6.40785,       956,
   6.42823,       917,
   6.44862,       883,
   6.46901,       790,
    6.4894,       798,
   6.50978,       811,
   6.53017,       777,
   6.55056,       713,
   6.57095,       683,
   6.59133,       665,
   6.61172,       718,
   6.63211,       605,
    6.6525,       629,
   6.67288,       637,
   6.69327,       544,
   6.71366,       570,
   6.73405,       587,
   6.75443,       568,
   6.77482,       525,
   6.79521,       489,
    6.8156,       460,
   6.83598,       490,
   6.85637,       465,
   6.87676,       433,
   6.89715,       399,
   6.91753,       389,
   6.93792,       409,
   6.95831,       389,
    6.9787,       411,
   6.99908,       386,
   7.01947,       396,
   7.03986,       386,
   7.06025,       366,
   7.08063,       404,
   7.10102,       368,
   7.12141,       355,
    7.1418,       349,
   7.16218,       377,
   7.18257,       380,
   7.20296,       322,
   7.22335,       345,
   7.24373,       339,
   7.26412,       331,
   7.28451,       317,
    7.3049,       352,
   7.32528,       313,
   7.34567,       337,
   7.36606,       287,
   7.38645,       323,
   7.40683,       287,
   7.42722,       320,
   7.44761,       283,
     7.468,       285,
   7.48839,       268,
   7.50877,       286,
   7.52916,       269,
   7.54955,       285,
   7.56994,       265,
   7.59032,       292,
   7.61071,       283,
    7.6311,       271,
   7.65149,       294,
   7.67187,       242,
   7.69226,       235,
   7.71265,       253,
   7.73304,       225,
   7.75342,       239,
   7.77381,       249,
    7.7942,       234,
   7.81459,       276,
   7.83497,       269,
   7.85536,       225,
   7.87575,       257,
   7.89614,       242,
   7.91652,       239,
   7.93691,       272,
    7.9573,       252,
   7.97769,       233,
   7.99807,       224,
   8.01846,       251,
   8.03885,       248,
   8.05924,       240,
   8.07962,       241,
   8.10001,       219,
    8.1204,       200,
   8.14079,       254,
   8.16117,       206,
   8.18156,       228,
   8.20195,       234,
   8.22234,       191,
   8.24272,       212,
   8.26311,       216,
    8.2835,       164,
   8.30389,       238,
   8.32427,       186,
   8.34466,       222,
   8.36505,       195,
   8.38544,       202,
   8.40582,       229,
   8.42621,       204,
    8.4466,       178,
   8.46699,       206,
   8.48737,       197,
   8.50776,       171,
   8.52815,       180,
   8.54854,       205,
   8.56892,       185,
   8.58931,       180,
    8.6097,       191,
   8.63009,       182,
   8.65047,       202,
   8.67086,       203,
   8.69125,       181,
   8.71164,       170,
   8.73202,       176,
   8.75241,       165,
    8.7728,       178,
   8.79319,       163,
   8.81357,       207,
   8.83396,       155,
   8.85435,       172,
   8.87474,       186,
   8.89512,       147,
   8.91551,       172,
    8.9359,       144,
   8.95629,       197,
   8.97667,       165,
   8.99706,       188,
   9.01745,       160,
   9.03784,       171,
   9.05822,       162,
   9.07861,       169,
     9.099,       170,
   9.11939,       156,
   9.13977,       160,
   9.16016,       163,
   9.18055,       175,
   9.20094,       173,
   9.22133,       164,
   9.24171,       146,
    9.2621,       142,
   9.28249,       134,
   9.30288,       141,
   9.32326,       169,
   9.34365,       156,
   9.36404,       158,
   9.38443,       178,
   9.40481,       155,
    9.4252,       131,
   9.44559,       179,
   9.46598,       153,
   9.48636,       168,
   9.50675,       141,
   9.52714,       151,
   9.54753,       162,
   9.56791,       167,
    9.5883,       135,
   9.60869,       153,
   9.62908,       150,
   9.64946,       145,
   9.66985,       134,
   9.69024,       173,
   9.71063,       147,
   9.73101,       132,
    9.7514,       155,
   9.77179,       165,
   9.79218,       122,
   9.81256,       144,
   9.83295,       134,
   9.85334,       159,
   9.87373,       120,
   9.89411,       131,
    9.9145,       133,
   9.93489,       128,
   9.95528,       108,
   9.97566,       122,
   9.99605,       117,
   10.0164,       142,
   10.0368,       138,
   10.0572,       113,
   10.0776,       127,
    10.098,       119,
   10.1184,       115,
   10.1388,       112,
   10.1592,       129,
   10.1795,       114,
   10.1999,       124,
   10.2203,       105,
   10.2407,       128,
   10.2611,       132,
   10.2815,       133,
   10.3019,       114,
   10.3223,       134,
   10.3426,       118,
    10.363,       112,
   10.3834,       127,
   10.4038,       128,
   10.4242,       121,
   10.4446,       136,
    10.465,       113,
   10.4854,       111,
   10.5057,       135,
   10.5261,       125,
   10.5465,       108,
   10.5669,        91,
   10.5873,       146,
   10.6077,       103,
   10.6281,       128,
   10.6485,       109,
   10.6688,       109,
   10.6892,       137,
   10.7096,       119,
     10.73,       115,
   10.7504,       121,
   10.7708,        98,
   10.7912,       129,
   10.8116,       114,
   10.8319,       115,
   10.8523,       116,
   10.8727,       115,
   10.8931,       107,
   10.9135,       111,
   10.9339,        96,
   10.9543,       114,
   10.9747,       109,
    10.995,       129,
   11.0154,       110,
   11.0358,        93,
   11.0562,       134,
   11.0766,       113,
    11.097,       109,
   11.1174,        83,
   11.1378,       119,
   11.1581,       130,
   11.1785,        97,
   11.1989,       127,
   11.2193,       112,
   11.2397,       112,
   11.2601,       101,
   11.2805,       131,
   11.3009,        96,
   11.3212,       108,
   11.3416,       110,
    11.362,       110,
   11.3824,        99,
   11.4028,       101,
   11.4232,        95,
   11.4436,        84,
    11.464,       106,
   11.4843,       117,
   11.5047,       107,
   11.5251,       108,
   11.5455,       109,
   11.5659,        96,
   11.5863,       109,
   11.6067,        91,
   11.6271,       113,
   11.6474,       103,
   11.6678,        87,
   11.6882,        93,
   11.7086,       101,
    11.729,        92,
   11.7494,        98,
   11.7698,       113,
   11.7902,       102,
   11.8105,       119,
   11.8309,       117,
   11.8513,        95,
   11.8717,        98,
   11.8921,       108,
   11.9125,        88,
   11.9329,       101,
   11.9533,       115,
   11.9736,        97,
    11.994,        85,
   12.0144,        77,
   12.0348,        74,
   12.0552,        76,
   12.0756,        95,
    12.096,        97,
   12.1164,        88,
   12.1367,       111,
   12.1571,        79,
   12.1775,        98,
   12.1979,       128,
   12.2183,        89,
   12.2387,        98,
   12.2591,        89,
   12.2795,       104,
   12.2998,        91,
   12.3202,       108,
   12.3406,        89,
    12.361,        92,
   12.3814,        95,
   12.4018,       107,
   12.4222,       100,
   12.4426,        96,
   12.4629,        98,
   12.4833,       114,
   12.5037,       100,
   12.5241,        96,
   12.5445,        86,
   12.5649,        84,
   12.5853,        94,
   12.6057,        92,
    12.626,        95,
   12.6464,        87,
   12.6668,       104,
   12.6872,        91,
   12.7076,        83,
    12.728,        86,
   12.7484,        88,
   12.7688,        98,
   12.7891,        92,
   12.8095,        63,
   12.8299,       107,
   12.8503,        89,
   12.8707,        94,
   12.8911,       103,
   12.9115,        89,
   12.9319,       100,
   12.9522,        81,
   12.9726,        85,
    12.993,        88,
   13.0134,        81,
   13.0338,        98,
   13.0542,        87,
   13.0746,        90,
    13.095,        98,
   13.1153,        84,
   13.1357,       108,
   13.1561,        85,
   13.1765,        91,
   13.1969,        84,
   13.2173,        88,
   13.2377,        82,
   13.2581,        67,
   13.2784,        91,
   13.2988,        82,
   13.3192,        85,
   13.3396,        77,
     13.36,        82,
   13.3804,        86,
   13.4008,        91,
   13.4212,        92,
   13.4415,       102,
   13.4619,        90,
   13.4823,       107,
   13.5027,        84,
   13.5231,        89,
   13.5435,        85,
   13.5639,        93,
   13.5843,        77,
   13.6046,        95,
    13.625,        93,
   13.6454,        90,
   13.6658,        85,
   13.6862,        84,
   13.7066,        86,
    13.727,        66,
   13.7474,        69,
   13.7677,       101,
   13.7881,        86,
   13.8085,        84,
   13.8289,        85,
   13.8493,        86,
   13.8697,        85,
   13.8901,        89,
   13.9105,        82,
   13.9308,        78,
   13.9512,        76,
   13.9716,        68,
    13.992,        77,
   14.0124,        89,
   14.0328,        89,
   14.0532,        67,
   14.0736,        99,
   14.0939,        92,
   14.1143,        83,
   14.1347,        85,
   14.1551,        84,
   14.1755,        83,
   14.1959,        81,
   14.2163,        80,
   14.2367,        66,
    14.257,        95,
   14.2774,        63,
   14.2978,        76,
   14.3182,        81,
   14.3386,        89,
    14.359,        94,
   14.3794,        90,
   14.3998,        91,
   14.4201,        84,
   14.4405,        77,
   14.4609,        66,
   14.4813,        93,
   14.5017,        98,
   14.5221,        83,
   14.5425,        64,
   14.5629,        74,
   14.5832,        85,
   14.6036,        73,
    14.624,        80,
   14.6444,        98,
   14.6648,        72,
   14.6852,        95,
   14.7056,        97,
    14.726,        82,
   14.7463,        70,
   14.7667,        75,
   14.7871,        79,
   14.8075,        77,
   14.8279,        85,
   14.8483,        81,
   14.8687,        75,
   14.8891,        83,
   14.9094,        87,
   14.9298,        73,
   14.9502,        71,
   14.9706,        84,
    14.991,        90,
   15.0114,        94,
   15.0318,        89,
   15.0522,        68,
   15.0725,        67,
   15.0929,        79,
   15.1133,        78,
   15.1337,        73,
   15.1541,        78,
   15.1745,        82,
   15.1949,        88,
   15.2153,        68,
   15.2356,        85,
    15.256,        91,
   15.2764,       112,
   15.2968,        73,
   15.3172,        81,
   15.3376,        76,
    15.358,        72,
   15.3784,        66,
   15.3987,        82,
   15.4191,        75,
   15.4395,        77,
   15.4599,        66,
   15.4803,        61,
   15.5007,        85,
   15.5211,        65,
   15.5415,        83,
   15.5618,        70,
   15.5822,        72,
   15.6026,        75,
    15.623,        86,
   15.6434,        83,
   15.6638,        81,
   15.6842,        76,
   15.7046,        75,
   15.7249,        95,
   15.7453,        83,
   15.7657,        71,
   15.7861,        71,
   15.8065,        82,
   15.8269,        83,
   15.8473,        73,
   15.8677,        66,
    15.888,        86,
   15.9084,        77,
   15.9288,        84,
   15.9492,        69,
   15.9696,        86,
     15.99,        78,
   16.0104,        88,
   16.0308,        88,
   16.0511,        71,
   16.0715,        93,
   16.0919,        79,
   16.1123,        87,
   16.1327,        69,
   16.1531,        78,
   16.1735,        83,
   16.1939,        73,
   16.2142,        64,
   16.2346,        84,
    16.255,        85,
   16.2754,        81,
   16.2958,        64,
   16.3162,        98,
   16.3366,        88,
    16.357,        84,
   16.3773,        88,
   16.3977,        88,
   16.4181,        66,
   16.4385,        67,
   16.4589,        87,
   16.4793,        66,
   16.4997,        80,
   16.5201,        80,
   16.5404,        65,
   16.5608,        67,
   16.5812,        82,
   16.6016,        74,
    16.622,        88,
   16.6424,        84,
   16.6628,        77,
   16.6832,        70,
   16.7035,        91,
   16.7239,        89,
   16.7443,        95,
   16.7647,        76,
   16.7851,        80,
   16.8055,        62,
   16.8259,        80,
   16.8463,        82,
   16.8666,        93,
    16.887,        89,
   16.9074,        81,
   16.9278,        94,
   16.9482,        88,
   16.9686,        81,
    16.989,        80,
   17.0094,        87,
   17.0297,        74,
   17.0501,        92,
   17.0705,        80,
   17.0909,        95,
   17.1113,        89,
   17.1317,        59,
   17.1521,        62,
   17.1725,        61,
   17.1928,        73,
   17.2132,        82,
   17.2336,        94,
    17.254,        74,
   17.2744,        70,
   17.2948,        92,
   17.3152,        78,
   17.3356,        85,
   17.3559,       102,
   17.3763,        77,
   17.3967,        85,
   17.4171,        86,
   17.4375,        60,
   17.4579,        86,
   17.4783,        81,
   17.4987,        79,
   17.5191,        87,
   17.5394,        92,
   17.5598,        93,
   17.5802,        98,
   17.6006,        81,
    17.621,        87,
   17.6414,        71,
   17.6618,        84,
   17.6822,        75,
   17.7025,        86,
   17.7229,        86,
   17.7433,        99,
   17.7637,        90,
   17.7841,        90,
   17.8045,        71,
   17.8249,        75,
   17.8453,        98,
   17.8656,        87,
    17.886,        90,
   17.9064,        70,
   17.9268,        95,
   17.9472,       102,
   17.9676,        87,
    17.988,        82,
   18.0084,        82,
   18.0287,        99,
   18.0491,        92,
   18.0695,        98,
   18.0899,        74,
   18.1103,        97,
   18.1307,        79,
   18.1511,        94,
   18.1715,        99,
   18.1918,        91,
   18.2122,        79,
   18.2326,       110,
    18.253,        82,
   18.2734,        90,
   18.2938,       104,
   18.3142,        98,
   18.3346,        92,
   18.3549,        90,
   18.3753,       108,
   18.3957,       105,
   18.4161,       107,
   18.4365,        73,
   18.4569,        91,
   18.4773,        97,
   18.4977,       106,
    18.518,        97,
   18.5384,       104,
   18.5588,        97,
   18.5792,       101,
   18.5996,        90,
     18.62,        90,
   18.6404,        92,
   18.6608,       109,
   18.6811,        94,
   18.7015,        81,
   18.7219,        94,
   18.7423,        95,
   18.7627,        97,
   18.7831,       117,
   18.8035,        94,
   18.8239,        99,
   18.8442,        95,
   18.8646,        93,
    18.885,        93,
   18.9054,        91,
   18.9258,        95,
   18.9462,       102,
   18.9666,       100,
    18.987,        92,
   19.0073,       113,
   19.0277,       100,
   19.0481,        98,
   19.0685,       106,
   19.0889,       115,
   19.1093,        94,
   19.1297,       109,
   19.1501,        97,
   19.1704,       109,
   19.1908,       108,
   19.2112,       100,
   19.2316,       112,
    19.252,        99,
   19.2724,       110,
   19.2928,       120,
   19.3132,       101,
   19.3335,       105,
   19.3539,        95,
   19.3743,       103,
   19.3947,       104,
   19.4151,        95,
   19.4355,       105,
   19.4559,       111,
   19.4763,        91,
   19.4966,        95,
    19.517,       110,
   19.5374,        99,
   19.5578,        96,
   19.5782,       123,
   19.5986,       114,
    19.619,        96,
   19.6394,        97,
   19.6597,       136,
   19.6801,       112,
   19.7005,       108,
   19.7209,       105,
   19.7413,       124,
   19.7617,       108,
   19.7821,       142,
   19.8025,       105,
   19.8228,       110,
   19.8432,       123,
   19.8636,       119,
    19.884,       116,
   19.9044,       115,
   19.9248,       125,
   19.9452,       117,
   19.9656,       111,
   19.9859,       100,
   20.0063,       108,
   20.0267,       107,
   20.0471,       124,
   20.0675,       124,
   20.0879,       103,
   20.1083,       123,
   20.1287,       110,
    20.149,       115,
   20.1694,        98,
   20.1898,       111,
   20.2102,       133,
   20.2306,        95,
    20.251,       116,
   20.2714,       122,
   20.2918,       125,
   20.3121,        94,
   20.3325,       123,
   20.3529,       118,
   20.3733,       113,
   20.3937,       118,
   20.4141,       117,
   20.4345,       123,
   20.4549,       100,
   20.4752,       106,
   20.4956,       113,
    20.516,        97,
   20.5364,       124,
   20.5568,       137,
   20.5772,       113,
   20.5976,       119,
    20.618,       117,
   20.6383,        97,
   20.6587,       123,
   20.6791,       110,
   20.6995,       124,
   20.7199,       110,
   20.7403,       123,
   20.7607,       106,
   20.7811,       128,
   20.8014,       104,
   20.8218,       113,
   20.8422,       134,
   20.8626,       118,
    20.883,       122,
   20.9034,       120,
   20.9238,       124,
   20.9442,       113,
   20.9645,       136,
   20.9849,       106,
   21.0053,       121,
   21.0257,        96,
   21.0461,       123,
   21.0665,       116,
   21.0869,       117,
   21.1073,       120,
   21.1276,       144,
    21.148,       128,
   21.1684,       135,
   21.1888,       133,
   21.2092,       117,
   21.2296,       124,
     21.25,       119,
   21.2704,       128,
   21.2907,       130,
   21.3111,       125,
   21.3315,       105,
   21.3519,       143,
   21.3723,       145,
   21.3927,       119,
   21.4131,       150,
   21.4335,       128,
   21.4538,       157,
   21.4742,       139,
   21.4946,       144,
    21.515,       154,
   21.5354,       166,
   21.5558,       172,
   21.5762,       169,
   21.5966,       158,
   21.6169,       180,
   21.6373,       171,
   21.6577,       159,
   21.6781,       149,
   21.6985,       164,
   21.7189,       167,
   21.7393,       159,
   21.7597,       161,
     21.78,       149,
   21.8004,       130,
   21.8208,       119,
   21.8412,       129,
   21.8616,       129,
    21.882,       140,
   21.9024,       132,
   21.9228,       133,
   21.9431,       132,
   21.9635,       124,
   21.9839,       121,
   22.0043,       119,
   22.0247,       125,
   22.0451,       119,
   22.0655,       123,
   22.0859,       105,
   22.1062,       125,
   22.1266,       113,
    22.147,       129,
   22.1674,        99,
   22.1878,       117,
   22.2082,       110,
   22.2286,       130,
    22.249,       126,
   22.2693,       119,
   22.2897,       112,
   22.3101,       116,
   22.3305,       127,
   22.3509,       127,
   22.3713,       129,
   22.3917,       122,
   22.4121,       128,
   22.4324,       115,
   22.4528,       107,
   22.4732,       113,
   22.4936,       136,
    22.514,       167,
   22.5344,       120,
   22.5548,       112,
   22.5752,       130,
   22.5955,        94,
   22.6159,       140,
   22.6363,       106,
   22.6567,       116,
   22.6771,       124,
   22.6975,       118,
   22.7179,       115,
   22.7383,       127,
   22.7586,       124,
    22.779,       131,
   22.7994,       103,
   22.8198,        99,
   22.8402,       119,
   22.8606,       126,
    22.881,       120,
   22.9014,       120,
   22.9217,       147,
   22.9421,       102,
   22.9625,       119,
   22.9829,       112,
   23.0033,       113,
   23.0237,       137,
   23.0441,       121,
   23.0645,       114,
   23.0848,       125,
   23.1052,       116,
   23.1256,       125,
    23.146,       131,
   23.1664,       107,
   23.1868,       133,
   23.2072,       111,
   23.2276,        90,
   23.2479,       114,
   23.2683,       110,
   23.2887,       103,
   23.3091,       114,
   23.3295,       118,
   23.3499,       110,
   23.3703,       114,
   23.3907,       124,
    23.411,       131,
   23.4314,       119,
   23.4518,       108,
   23.4722,       124,
   23.4926,       131,
    23.513,        99,
   23.5334,       112,
   23.5538,       104,
   23.5741,       120,
   23.5945,       121,
   23.6149,       114,
   23.6353,       103,
   23.6557,       121,
   23.6761,       127,
   23.6965,       103,
   23.7169,       110,
   23.7372,       115,
   23.7576,       109,
    23.778,       106,
   23.7984,       134,
   23.8188,        96,
   23.8392,       138,
   23.8596,        87,
     23.88,       128,
   23.9003,       106,
   23.9207,       112,
   23.9411,       109,
   23.9615,       134,
   23.9819,       110,
   24.0023,       114,
   24.0227,       103,
   24.0431,       117,
   24.0634,       116,
   24.0838,       102,
   24.1042,       105,
   24.1246,       109,
    24.145,       110,
   24.1654,       121,
   24.1858,       117,
   24.2062,       105,
   24.2265,       118,
   24.2469,       109,
   24.2673,        98,
   24.2877,       112,
   24.3081,       116,
   24.3285,       108,
   24.3489,        99,
   24.3693,       126,
   24.3896,       105,
     24.41,       112,
   24.4304,       107,
   24.4508,        86,
   24.4712,       114,
   24.4916,       111,
    24.512,        96,
   24.5324,       100,
   24.5527,       114,
   24.5731,       105,
   24.5935,       112,
   24.6139,       114,
   24.6343,       107,
   24.6547,       115,
   24.6751,       114,
   24.6955,       111,
   24.7158,        99,
   24.7362,       107,
   24.7566,       113,
    24.777,       100,
   24.7974,       117,
   24.8178,       118,
   24.8382,       100,
   24.8586,        87,
   24.8789,       108,
   24.8993,        94,
   24.9197,       110,
   24.9401,       120,
   24.9605,       106,
   24.9809,       111,
   25.0013,       112,
   25.0217,       105,
    25.042,       124,
   25.0624,       106,
   25.0828,       109,
   25.1032,       104,
   25.1236,       128,
    25.144,       109,
   25.1644,        94,
   25.1848,        92,
   25.2051,       113,
   25.2255,        90,
   25.2459,       105,
   25.2663,        90,
   25.2867,       115,
   25.3071,       122,
   25.3275,       102,
   25.3479,       112,
   25.3682,       118,
   25.3886,       117,
    25.409,        89,
   25.4294,        96,
   25.4498,        96,
   25.4702,       113,
   25.4906,       106,
    25.511,       107,
   25.5313,       113,
   25.5517,       106,
   25.5721,       112,
   25.5925,       107,
   25.6129,       107,
   25.6333,        93,
   25.6537,       102,
   25.6741,       101,
   25.6944,       110,
   25.7148,        96,
   25.7352,       104,
   25.7556,       118,
    25.776,        97,
   25.7964,        98,
   25.8168,       103,
   25.8372,       104,
   25.8576,       104,
   25.8779,        97,
   25.8983,        92,
   25.9187,        98,
   25.9391,       101,
   25.9595,       122,
   25.9799,        82,
   26.0003,       101,
   26.0207,       111,
    26.041,        87,
   26.0614,        98,
   26.0818,       107,
   26.1022,       111,
   26.1226,        91,
    26.143,       105,
   26.1634,        99,
   26.1838,       104,
   26.2041,       108,
   26.2245,        88,
   26.2449,        90,
   26.2653,       104,
   26.2857,        87,
   26.3061,       112,
   26.3265,       106,
   26.3469,       102,
   26.3672,        94,
   26.3876,       101,
    26.408,       101,
   26.4284,        96,
   26.4488,       116,
   26.4692,       111,
   26.4896,        98,
     26.51,        84,
   26.5303,       124,
   26.5507,        85,
   26.5711,       113,
   26.5915,       100,
   26.6119,        88,
   26.6323,       105,
   26.6527,       103,
   26.6731,        95,
   26.6934,       119,
   26.7138,        99,
   26.7342,        84,
   26.7546,       101,
    26.775,        99,
   26.7954,       103,
   26.8158,       100,
   26.8362,       111,
   26.8565,       123,
   26.8769,       100,
   26.8973,        93,
   26.9177,       123,
   26.9381,        91,
   26.9585,        93,
   26.9789,        98,
   26.9993,        92,
   27.0196,       107,
     27.04,       114,
   27.0604,        88,
   27.0808,        95,
   27.1012,        85,
   27.1216,       106,
    27.142,        97,
   27.1624,       104,
   27.1827,        92,
   27.2031,        85,
   27.2235,        98,
   27.2439,       104,
   27.2643,        97,
   27.2847,        93,
   27.3051,        92,
   27.3255,       104,
   27.3458,       104,
   27.3662,       128,
   27.3866,        94,
    27.407,       127,
   27.4274,       111,
   27.4478,       113,
   27.4682,       133,
   27.4886,       139,
   27.5089,       114,
   27.5293,       115,
   27.5497,       126,
   27.5701,       118,
   27.5905,       132,
   27.6109,       119,
   27.6313,       125,
   27.6517,       115,
    27.672,       116,
   27.6924,       126,
   27.7128,       112,
   27.7332,       121,
   27.7536,        87,
    27.774,       127,
   27.7944,       132,
   27.8148,       101,
   27.8351,       108,
   27.8555,        94,
   27.8759,       102,
   27.8963,       114,
   27.9167,        95,
   27.9371,       100,
   27.9575,       101,
   27.9779,        89,
   27.9982,        91,
   28.0186,        95,
    28.039,       106,
   28.0594,       111,
   28.0798,        78,
   28.1002,       100,
   28.1206,        86,
    28.141,        91,
   28.1613,        86,
   28.1817,        91,
   28.2021,        98,
   28.2225,        89,
   28.2429,       115,
   28.2633,        91,
   28.2837,       101,
   28.3041,        98,
   28.3244,       100,
   28.3448,        81,
   28.3652,        83,
   28.3856,       109,
    28.406,       116,
   28.4264,        94,
   28.4468,        81,
   28.4672,        92,
   28.4875,        88,
   28.5079,        95,
   28.5283,       120,
   28.5487,       102,
   28.5691,       105,
   28.5895,        96,
   28.6099,        97,
   28.6303,        91,
   28.6506,       102,
    28.671,        83,
   28.6914,       104,
   28.7118,       102,
   28.7322,       103,
   28.7526,        85,
    28.773,        97,
   28.7934,        90,
   28.8137,        78,
   28.8341,        92,
   28.8545,       100,
   28.8749,       105,
   28.8953,       101,
   28.9157,        98,
   28.9361,       102,
   28.9565,        95,
   28.9768,       103,
   28.9972,       113,
   29.0176,        92,
    29.038,        87,
   29.0584,        85,
   29.0788,        96,
   29.0992,       100,
   29.1196,        97,
   29.1399,        99,
   29.1603,        94,
   29.1807,        92,
   29.2011,        94,
   29.2215,        98,
   29.2419,        74,
   29.2623,        75,
   29.2827,        87,
    29.303,       104,
   29.3234,       100,
   29.3438,       117,
   29.3642,       102,
   29.3846,        81,
    29.405,       103,
   29.4254,       103,
   29.4458,        81,
   29.4661,        83,
   29.4865,        82,
   29.5069,        83,
   29.5273,        83,
   29.5477,        97,
   29.5681,       110,
   29.5885,        99,
   29.6089,       105,
   29.6292,        97,
   29.6496,        82,
     29.67,        87,
   29.6904,       106,
   29.7108,        90,
   29.7312,       103,
   29.7516,        92,
    29.772,       115,
   29.7923,       111,
   29.8127,       113,
   29.8331,       112,
   29.8535,        96,
   29.8739,       101,
   29.8943,       101,
   29.9147,       103,
   29.9351,       107,
   29.9554,       112,
   29.9758,       116,
   29.9962,       119,
   30.0166,       113,
    30.037,       101,
   30.0574,       115,
   30.0778,        98,
   30.0982,       100,
   30.1185,       107,
   30.1389,       117,
   30.1593,       106,
   30.1797,       121,
   30.2001,       122,
   30.2205,       131,
   30.2409,       116,
   30.2613,       115,
   30.2816,       114,
    30.302,       118,
   30.3224,       136,
   30.3428,       152,
   30.3632,       151,
   30.3836,       147,
    30.404,       123,
   30.4244,       147,
   30.4447,       159,
   30.4651,       167,
   30.4855,       181,
   30.5059,       189,
   30.5263,       183,
   30.5467,       225,
   30.5671,       250,
   30.5875,       279,
   30.6078,       334,
   30.6282,       330,
   30.6486,       347,
    30.669,       381,
   30.6894,       435,
   30.7098,       403,
   30.7302,       435,
   30.7506,       391,
   30.7709,       341,
   30.7913,       340,
   30.8117,       353,
   30.8321,       321,
   30.8525,       281,
   30.8729,       222,
   30.8933,       242,
   30.9137,       212,
    30.934,       184,
   30.9544,       182,
   30.9748,       180,
   30.9952,       177,
   31.0156,       154,
    31.036,       148,
   31.0564,       148,
   31.0768,       151,
   31.0971,        90,
   31.1175,       135,
   31.1379,       111,
   31.1583,       130,
   31.1787,       115,
   31.1991,       131,
   31.2195,       152,
   31.2399,       111,
   31.2602,       121,
   31.2806,       110,
    31.301,        92,
   31.3214,       121,
   31.3418,       108,
   31.3622,       120,
   31.3826,        94,
    31.403,        90,
   31.4233,        91,
   31.4437,        93,
   31.4641,        89,
   31.4845,        78,
   31.5049,       109,
   31.5253,        76,
   31.5457,        92,
   31.5661,        99,
   31.5864,        93,
   31.6068,       109,
   31.6272,        96,
   31.6476,        98,
    31.668,        94,
   31.6884,       110,
   31.7088,       100,
   31.7292,        99,
   31.7495,        92,
   31.7699,        98,
   31.7903,       104,
   31.8107,        86,
   31.8311,        74,
   31.8515,        88,
   31.8719,        93,
   31.8923,        92,
   31.9126,        90,
    31.933,       100,
   31.9534,        91,
   31.9738,        96,
   31.9942,        94,
   32.0146,       107,
    32.035,        95,
   32.0554,       100,
   32.0757,        75,
   32.0961,        75,
   32.1165,        72,
   32.1369,        82,
   32.1573,        68,
   32.1777,        82,
   32.1981,        99,
   32.2185,        91,
   32.2388,        79,
   32.2592,        89,
   32.2796,       101,
      32.3,        78,
   32.3204,        92,
   32.3408,        96,
   32.3612,       103,
   32.3816,        84,
   32.4019,        90,
   32.4223,        90,
   32.4427,        84,
   32.4631,        79,
   32.4835,        92,
   32.5039,        90,
   32.5243,        70,
   32.5447,        85,
    32.565,        77,
   32.5854,        83,
   32.6058,        81,
   32.6262,        89,
   32.6466,        77,
    32.667,        92,
   32.6874,        76,
   32.7078,        82,
   32.7281,        76,
   32.7485,        95,
   32.7689,       103,
   32.7893,        84,
   32.8097,        95,
   32.8301,        79,
   32.8505,        84,
   32.8709,        96,
   32.8912,        81,
   32.9116,       101,
    32.932,        94,
   32.9524,        88,
   32.9728,        85,
   32.9932,        88,
   33.0136,        93,
    33.034,        99,
   33.0543,        98,
   33.0747,       122,
   33.0951,       125,
   33.1155,       118,
   33.1359,       116,
   33.1563,       104,
   33.1767,       115,
   33.1971,        92,
   33.2174,        89,
   33.2378,        92,
   33.2582,        84,
   33.2786,        88,
    33.299,       101,
   33.3194,       122,
   33.3398,        85,
   33.3602,        82,
   33.3805,        78,
   33.4009,        95,
   33.4213,        72,
   33.4417,        81,
   33.4621,        70,
   33.4825,        72,
   33.5029,        88,
   33.5233,        70,
   33.5436,        91,
    33.564,        73,
   33.5844,        81,
   33.6048,        87,
   33.6252,        97,
   33.6456,        91,
    33.666,        91,
   33.6864,        86,
   33.7067,        88,
   33.7271,        91,
   33.7475,        89,
   33.7679,        90,
   33.7883,        67,
   33.8087,        92,
   33.8291,        78,
   33.8495,        94,
   33.8698,        98,
   33.8902,        79,
   33.9106,        91,
    33.931,        80,
   33.9514,        72,
   33.9718,        82,
   33.9922,        71,
   34.0126,        93,
   34.0329,        79,
   34.0533,        81,
   34.0737,        73,
   34.0941,        98,
   34.1145,        66,
   34.1349,        78,
   34.1553,        84,
   34.1757,        93,
   34.1961,        63,
   34.2164,        66,
   34.2368,        69,
   34.2572,        71,
   34.2776,        82,
    34.298,        75,
   34.3184,        78,
   34.3388,        70,
   34.3592,        88,
   34.3795,        66,
   34.3999,        84,
   34.4203,        81,
   34.4407,        76,
   34.4611,        75,
   34.4815,        93,
   34.5019,        76,
   34.5223,       103,
   34.5426,        85,
    34.563,        84,
   34.5834,        73,
   34.6038,        83,
   34.6242,        77,
   34.6446,        95,
    34.665,        90,
   34.6854,        96,
   34.7057,        97,
   34.7261,        84,
   34.7465,        75,
   34.7669,        62,
   34.7873,        68,
   34.8077,        76,
   34.8281,        65,
   34.8485,        92,
   34.8688,        90,
   34.8892,        79,
   34.9096,        74,
     34.93,        86,
   34.9504,        78,
   34.9708,        86,
   34.9912,        69,
   35.0116,        87,
   35.0319,        97,
   35.0523,        95,
   35.0727,        87,
   35.0931,        93,
   35.1135,        90,
   35.1339,        84,
   35.1543,        73,
   35.1747,        72,
    35.195,        78,
   35.2154,        98,
   35.2358,        83,
   35.2562,       100,
   35.2766,        90,
    35.297,       104,
   35.3174,        94,
   35.3378,       109,
   35.3581,       104,
   35.3785,        94,
   35.3989,       107,
   35.4193,       107,
   35.4397,       119,
   35.4601,       108,
   35.4805,       122,
   35.5009,       129,
   35.5212,       114,
   35.5416,       148,
    35.562,       145,
   35.5824,       151,
   35.6028,       139,
   35.6232,       156,
   35.6436,       133,
    35.664,       143,
   35.6843,       130,
   35.7047,       115,
   35.7251,       114,
   35.7455,       115,
   35.7659,       118,
   35.7863,       101,
   35.8067,        94,
   35.8271,       113,
   35.8474,        89,
   35.8678,       108,
   35.8882,        89,
   35.9086,        98,
    35.929,        96,
   35.9494,        99,
   35.9698,        92,
   35.9902,        98,
   36.0105,       108,
   36.0309,       119,
   36.0513,       122,
   36.0717,       106,
   36.0921,       108,
   36.1125,       103,
   36.1329,       129,
   36.1533,       116,
   36.1736,       128,
    36.194,       125,
   36.2144,       132,
   36.2348,       106,
   36.2552,       106,
   36.2756,       124,
    36.296,        97,
   36.3164,       100,
   36.3367,       103,
   36.3571,       103,
   36.3775,       107,
   36.3979,        89,
   36.4183,        99,
   36.4387,        85,
   36.4591,        99,
   36.4795,        86,
   36.4998,        89,
   36.5202,        74,
   36.5406,        85,
    36.561,        86,
   36.5814,        85,
   36.6018,        79,
   36.6222,       100,
   36.6426,        90,
   36.6629,        82,
   36.6833,        89,
   36.7037,        82,
   36.7241,        78,
   36.7445,        74,
   36.7649,        86,
   36.7853,        96,
   36.8057,        69,
    36.826,        93,
   36.8464,        57,
   36.8668,        68,
   36.8872,        81,
   36.9076,        78,
    36.928,        84,
   36.9484,        89,
   36.9688,        92,
   36.9891,        76,
   37.0095,        80,
   37.0299,        93,
   37.0503,        78,
   37.0707,        92,
   37.0911,        67,
   37.1115,       108,
   37.1319,        68,
   37.1522,        95,
   37.1726,        78,
    37.193,        94,
   37.2134,        72,
   37.2338,        87,
   37.2542,        84,
   37.2746,        79,
    37.295,       104,
   37.3153,       100,
   37.3357,        96,
   37.3561,        86,
   37.3765,        79,
   37.3969,        86,
   37.4173,        82,
   37.4377,        83,
   37.4581,        89,
   37.4784,        86,
   37.4988,        88,
   37.5192,        70,
   37.5396,        86,
     37.56,        90,
   37.5804,        88,
   37.6008,        79,
   37.6212,        79,
   37.6415,        83,
   37.6619,        86,
   37.6823,        77,
   37.7027,        89,
   37.7231,        91,
   37.7435,       105,
   37.7639,       104,
   37.7843,       107,
   37.8046,        86,
    37.825,        91,
   37.8454,       118,
   37.8658,        99,
   37.8862,       110,
   37.9066,       108,
    37.927,        89,
   37.9474,        90,
   37.9677,        93,
   37.9881,        88,
   38.0085,        99,
   38.0289,        79,
   38.0493,        83,
   38.0697,       105,
   38.0901,        88,
   38.1105,        95,
   38.1308,        82,
   38.1512,        82,
   38.1716,        79,
    38.192,        81,
   38.2124,        93,
   38.2328,        79,
   38.2532,        77,
   38.2736,        59,
   38.2939,        84,
   38.3143,        84,
   38.3347,        81,
   38.3551,        78,
   38.3755,        64,
   38.3959,        70,
   38.4163,        80,
   38.4367,        73,
    38.457,        85,
   38.4774,        65,
   38.4978,        62,
   38.5182,        78,
   38.5386,        67,
    38.559,        77,
   38.5794,        70,
   38.5998,        84,
   38.6201,        68,
   38.6405,        79,
   38.6609,        66,
   38.6813,        64,
   38.7017,        74,
   38.7221,        80,
   38.7425,        74,
   38.7629,        65,
   38.7832,        78,
   38.8036,        88,
    38.824,        74,
   38.8444,        77,
   38.8648,        68,
   38.8852,        82,
   38.9056,        68,
    38.926,        87,
   38.9463,        76,
   38.9667,        81,
   38.9871,        76,
   39.0075,        86,
   39.0279,        94,
   39.0483,        71,
   39.0687,        79,
   39.0891,        78,
   39.1094,        57,
   39.1298,        85,
   39.1502,        75,
   39.1706,        82,
    39.191,        70,
   39.2114,        78,
   39.2318,        80,
   39.2522,        73,
   39.2725,        81,
   39.2929,        69,
   39.3133,        74,
   39.3337,        65,
   39.3541,        76,
   39.3745,        73,
   39.3949,        75,
   39.4153,        88,
   39.4356,        63,
    39.456,        84,
   39.4764,        59,
   39.4968,        74,
   39.5172,        68,
   39.5376,        84,
    39.558,        80,
   39.5784,        74,
   39.5987,        72,
   39.6191,        79,
   39.6395,        68,
   39.6599,        65,
   39.6803,        69,
   39.7007,        86,
   39.7211,        71,
   39.7415,        77,
   39.7618,        64,
   39.7822,        64,
   39.8026,        70,
    39.823,        71,
   39.8434,        76,
   39.8638,        67,
   39.8842,        89,
   39.9046,        80,
   39.9249,        70,
   39.9453,        73,
   39.9657,        69,
   39.9861,        83,
   40.0065,        70,
   40.0269,        85,
   40.0473,        57,
   40.0677,        81,
    40.088,        64,
   40.1084,        82,
   40.1288,        66,
   40.1492,        79,
   40.1696,        61,
     40.19,        75,
   40.2104,        75,
   40.2308,        71,
   40.2511,        54,
   40.2715,        69,
   40.2919,        66,
   40.3123,        60,
   40.3327,        55,
   40.3531,        71,
   40.3735,        86,
   40.3939,        81,
   40.4142,        69,
   40.4346,        71,
    40.455,        76,
   40.4754,        77,
   40.4958,        80,
   40.5162,        72,
   40.5366,        59,
    40.557,        56,
   40.5773,        64,
   40.5977,        80,
   40.6181,        72,
   40.6385,        67,
   40.6589,        66,
   40.6793,        82,
   40.6997,        81,
   40.7201,        64,
   40.7404,        72,
   40.7608,        73,
   40.7812,        79,
   40.8016,        57,
    40.822,        68,
   40.8424,        70,
   40.8628,        59,
   40.8832,        52,
   40.9035,        77,
   40.9239,        73,
   40.9443,        76,
   40.9647,        82,
   40.9851,        58,
   41.0055,        55,
   41.0259,        73,
   41.0463,        88,
   41.0666,        72,
    41.087,        71,
   41.1074,        76,
   41.1278,        67,
   41.1482,        75,
   41.1686,        82,
    41.189,        65,
   41.2094,        79,
   41.2297,        83,
   41.2501,        82,
   41.2705,        85,
   41.2909,        64,
   41.3113,        86,
   41.3317,        86,
   41.3521,        77,
   41.3725,        83,
   41.3928,        76,
   41.4132,        63,
   41.4336,        79,
    41.454,        71,
   41.4744,        87,
   41.4948,        71,
   41.5152,        56,
   41.5356,        58,
   41.5559,        74,
   41.5763,        69,
   41.5967,        62,
   41.6171,        80,
   41.6375,        63,
   41.6579,        63,
   41.6783,        69,
   41.6987,        61,
    41.719,        71,
   41.7394,        69,
   41.7598,        57,
   41.7802,        74,
   41.8006,        77,
    41.821,        70,
   41.8414,        84,
   41.8618,        71,
   41.8821,        74,
   41.9025,        64,
   41.9229,        74,
   41.9433,        79,
   41.9637,        83,
   41.9841,        71,
   42.0045,        64,
   42.0249,        73,
   42.0452,        62,
   42.0656,        70,
    42.086,        64,
   42.1064,        60,
   42.1268,        61,
   42.1472,        74,
   42.1676,        71,
    42.188,        57,
   42.2083,        56,
   42.2287,        53,
   42.2491,        57,
   42.2695,        68,
   42.2899,        71,
   42.3103,        70,
   42.3307,        62,
   42.3511,        79,
   42.3714,        63,
   42.3918,        55,
   42.4122,        68,
   42.4326,        58,
    42.453,        54,
   42.4734,        54,
   42.4938,        71,
   42.5142,        63,
   42.5346,        64,
   42.5549,        55,
   42.5753,        65,
   42.5957,        58,
   42.6161,        49,
   42.6365,        64,
   42.6569,        48,
   42.6773,        47,
   42.6977,        68,
    42.718,        60,
   42.7384,        65,
   42.7588,        61,
   42.7792,        71,
   42.7996,        54,
     42.82,        52,
   42.8404,        57,
   42.8608,        55,
   42.8811,        60,
   42.9015,        59,
   42.9219,        51,
   42.9423,        59,
   42.9627,        64,
   42.9831,        54,
   43.0035,        48,
   43.0239,        50,
   43.0442,        57,
   43.0646,        52,
    43.085,        55,
   43.1054,        52,
   43.1258,        41,
   43.1462,        63,
   43.1666,        51,
    43.187,        51,
   43.2073,        60,
   43.2277,        54,
   43.2481,        51,
   43.2685,        50,
   43.2889,        47,
   43.3093,        72,
   43.3297,        51,
   43.3501,        47,
   43.3704,        61,
   43.3908,        59,
   43.4112,        65,
   43.4316,        53,
    43.452,        59,
   43.4724,        48,
   43.4928,        52,
   43.5132,        78,
   43.5335,        32,
   43.5539,        57,
   43.5743,        50,
   43.5947,        53,
   43.6151,        55,
   43.6355,        53,
   43.6559,        51,
   43.6763,        53,
   43.6966,        61,
    43.717,        56,
   43.7374,        50,
   43.7578,        53,
   43.7782,        54,
   43.7986,        62,
    43.819,        58,
   43.8394,        69,
   43.8597,        40,
   43.8801,        59,
   43.9005,        58,
   43.9209,        56,
   43.9413,        48,
   43.9617,        58,
   43.9821,        46,
   44.0025,        58,
   44.0228,        47,
   44.0432,        60,
   44.0636,        42,
    44.084,        56,
   44.1044,        47,
   44.1248,        54,
   44.1452,        41,
   44.1656,        48,
   44.1859,        58,
   44.2063,        37,
   44.2267,        45,
   44.2471,        64,
   44.2675,        59,
   44.2879,        54,
   44.3083,        46,
   44.3287,        52,
    44.349,        53,
   44.3694,        54,
   44.3898,        58,
   44.4102,        53,
   44.4306,        62,
    44.451,        55,
   44.4714,        45,
   44.4918,        44,
   44.5121,        47,
   44.5325,        37,
   44.5529,        55,
   44.5733,        45,
   44.5937,        51,
   44.6141,        57,
   44.6345,        50,
   44.6549,        36,
   44.6752,        46,
   44.6956,        61,
    44.716,        50,
   44.7364,        52,
   44.7568,        55,
   44.7772,        58,
   44.7976,        45,
    44.818,        56,
   44.8383,        58,
   44.8587,        52,
   44.8791,        49,
   44.8995,        57,
   44.9199,        56,
   44.9403,        59,
   44.9607,        47,
   44.9811,        46,
   45.0014,        47,
   45.0218,        52,
   45.0422,        48,
   45.0626,        44,
    45.083,        48,
   45.1034,        50,
   45.1238,        51,
   45.1442,        46,
   45.1645,        50,
   45.1849,        44,
   45.2053,        41,
   45.2257,        36,
   45.2461,        60,
   45.2665,        53,
   45.2869,        54,
   45.3073,        52,
   45.3276,        52,
    45.348,        61,
   45.3684,        52,
   45.3888,        54,
   45.4092,        42,
   45.4296,        42,
     45.45,        52,
   45.4704,        51,
   45.4907,        51,
   45.5111,        58,
   45.5315,        35,
   45.5519,        43,
   45.5723,        61,
   45.5927,        56,
   45.6131,        49,
   45.6335,        61,
   45.6538,        57,
   45.6742,        51,
   45.6946,        72,
    45.715,        67,
   45.7354,        69,
   45.7558,        52,
   45.7762,        65,
   45.7966,        66,
   45.8169,        58,
   45.8373,        59,
   45.8577,        63,
   45.8781,        55,
   45.8985,        48,
   45.9189,        55,
   45.9393,        69,
   45.9597,        57,
     45.98,        55,
   46.0004,        49,
   46.0208,        52,
   46.0412,        64,
   46.0616,        61,
    46.082,        54,
   46.1024,        56,
   46.1228,        53,
   46.1431,        39,
   46.1635,        61,
   46.1839,        52,
   46.2043,        48,
   46.2247,        45,
   46.2451,        46,
   46.2655,        51,
   46.2859,        52,
   46.3062,        55,
   46.3266,        47,
    46.347,        48,
   46.3674,        42,
   46.3878,        52,
   46.4082,        51,
   46.4286,        39,
    46.449,        49,
   46.4693,        50,
   46.4897,        50,
   46.5101,        38,
   46.5305,        52,
   46.5509,        51,
   46.5713,        50,
   46.5917,        46,
   46.6121,        47,
   46.6324,        38,
   46.6528,        50,
   46.6732,        28,
   46.6936,        53,
    46.714,        44,
   46.7344,        46,
   46.7548,        45,
   46.7752,        50,
   46.7955,        47,
   46.8159,        37,
   46.8363,        43,
   46.8567,        37,
   46.8771,        51,
   46.8975,        46,
   46.9179,        34,
   46.9383,        50,
   46.9586,        48,
    46.979,        46,
   46.9994,        35,
   47.0198,        56,
   47.0402,        50,
   47.0606,        39,
    47.081,        42,
   47.1014,        50,
   47.1217,        44,
   47.1421,        48,
   47.1625,        43,
   47.1829,        35,
   47.2033,        49,
   47.2237,        40,
   47.2441,        46,
   47.2645,        40,
   47.2848,        44,
   47.3052,        48,
   47.3256,        48,
    47.346,        55,
   47.3664,        44,
   47.3868,        51,
   47.4072,        41,
   47.4276,        43,
   47.4479,        50,
   47.4683,        39,
   47.4887,        47,
   47.5091,        40,
   47.5295,        36,
   47.5499,        30,
   47.5703,        45,
   47.5907,        56,
    47.611,        54,
   47.6314,        47,
   47.6518,        50,
   47.6722,        37,
   47.6926,        60,
    47.713,        40,
   47.7334,        40,
   47.7538,        53,
   47.7741,        42,
   47.7945,        40,
   47.8149,        53,
   47.8353,        48,
   47.8557,        54,
   47.8761,        45,
   47.8965,        58,
   47.9169,        35,
   47.9372,        52,
   47.9576,        35,
    47.978,        28,
   47.9984,        35,
   48.0188,        45,
   48.0392,        38,
   48.0596,        42,
     48.08,        42,
   48.1003,        49,
   48.1207,        48,
   48.1411,        43,
   48.1615,        45,
   48.1819,        37,
   48.2023,        47,
   48.2227,        38,
   48.2431,        41,
   48.2634,        32,
   48.2838,        38,
   48.3042,        30,
   48.3246,        40,
    48.345,        33,
   48.3654,        42,
   48.3858,        29,
   48.4062,        30,
   48.4265,        45,
   48.4469,        42,
   48.4673,        42,
   48.4877,        48,
   48.5081,        35,
   48.5285,        46,
   48.5489,        38,
   48.5693,        37,
   48.5896,        45,
     48.61,        36,
   48.6304,        37,
   48.6508,        40,
   48.6712,        42,
   48.6916,        39,
    48.712,        38,
   48.7324,        44,
   48.7527,        34,
   48.7731,        31,
   48.7935,        51,
   48.8139,        44,
   48.8343,        44,
   48.8547,        44,
   48.8751,        38,
   48.8955,        51,
   48.9158,        41,
   48.9362,        53,
   48.9566,        50,
    48.977,        35,
   48.9974,        35,
   49.0178,        53,
   49.0382,        33,
   49.0586,        47,
   49.0789,        32,
   49.0993,        45,
   49.1197,        38,
   49.1401,        37,
   49.1605,        47,
   49.1809,        51,
   49.2013,        35,
   49.2217,        38,
    49.242,        45,
   49.2624,        45,
   49.2828,        48,
   49.3032,        35,
   49.3236,        32,
    49.344,        46,
   49.3644,        43,
   49.3848,        50,
   49.4051,        47,
   49.4255,        51,
   49.4459,        47,
   49.4663,        33,
   49.4867,        51,
   49.5071,        45,
   49.5275,        36,
   49.5479,        35,
   49.5682,        46,
   49.5886,        47,
    49.609,        37,
   49.6294,        44,
   49.6498,        50,
   49.6702,        25,
   49.6906,        41,
    49.711,        45,
   49.7313,        50,
   49.7517,        40,
   49.7721,        52,
   49.7925,        43,
   49.8129,        38,
   49.8333,        40,
   49.8537,        44,
   49.8741,        49,
   49.8944,        36,
   49.9148,        49,
   49.9352,        38,
   49.9556,        35,
    49.976,        42,
   49.9964,        45,
   50.0168,        48,
   50.0372,        38,
   50.0575,        37,
   50.0779,        35,
   50.0983,        38,
   50.1187,        29,
   50.1391,        49,
   50.1595,        44,
   50.1799,        34,
   50.2003,        29,
   50.2206,        39,
    50.241,        43,
   50.2614,        47,
   50.2818,        44,
   50.3022,        31,
   50.3226,        33,
    50.343,        43,
   50.3634,        37,
   50.3837,        43,
   50.4041,        37,
   50.4245,        46,
   50.4449,        48,
   50.4653,        40,
   50.4857,        42,
   50.5061,        52,
   50.5265,        41,
   50.5468,        56,
   50.5672,        49,
   50.5876,        41,
    50.608,        49,
   50.6284,        46,
   50.6488,        45,
   50.6692,        51,
   50.6896,        39,
   50.7099,        45,
   50.7303,        48,
   50.7507,        46,
   50.7711,        52,
   50.7915,        39,
   50.8119,        41,
   50.8323,        49,
   50.8527,        49,
   50.8731,        62,
   50.8934,        48,
   50.9138,        68,
   50.9342,        67,
   50.9546,        71,
    50.975,        60,
   50.9954,        63,
   51.0158,        78,
   51.0362,        87,
   51.0565,       103,
   51.0769,        75,
   51.0973,        94,
   51.1177,        85,
   51.1381,        71,
   51.1585,        79,
   51.1789,        93,
   51.1993,        81,
   51.2196,        87,
     51.24,        96,
   51.2604,        91,
   51.2808,        73,
   51.3012,        77,
   51.3216,        89,
    51.342,        72,
   51.3624,        94,
   51.3827,        56,
   51.4031,        46,
   51.4235,        53,
   51.4439,        66,
   51.4643,        50,
   51.4847,        56,
   51.5051,        51,
   51.5255,        48,
   51.5458,        66,
   51.5662,        53,
   51.5866,        59,
    51.607,        43,
   51.6274,        47,
   51.6478,        47,
   51.6682,        44,
   51.6886,        56,
   51.7089,        56,
   51.7293,        36,
   51.7497,        40,
   51.7701,        56,
   51.7905,        45,
   51.8109,        49,
   51.8313,        47,
   51.8517,        47,
    51.872,        26,
   51.8924,        52,
   51.9128,        49,
   51.9332,        35,
   51.9536,        45,
    51.974,        45,
   51.9944,        39,
   52.0148,        44,
   52.0351,        52,
   52.0555,        26,
   52.0759,        33,
   52.0963,        38,
   52.1167,        43,
   52.1371,        38,
   52.1575,        50,
   52.1779,        39,
   52.1982,        39,
   52.2186,        45,
    52.239,        38,
   52.2594,        38,
   52.2798,        46,
   52.3002,        31,
   52.3206,        45,
    52.341,        26,
   52.3613,        39,
   52.3817,        38,
   52.4021,        39,
   52.4225,        42,
   52.4429,        45,
   52.4633,        34,
   52.4837,        37,
   52.5041,        41,
   52.5244,        34,
   52.5448,        39,
   52.5652,        37,
   52.5856,        41,
    52.606,        25,
   52.6264,        36,
   52.6468,        58,
   52.6672,        50,
   52.6875,        50,
   52.7079,        43,
   52.7283,        44,
   52.7487,        28,
   52.7691,        41,
   52.7895,        50,
   52.8099,        40,
   52.8303,        51,
   52.8506,        33,
    52.871,        40,
   52.8914,        33,
   52.9118,        36,
   52.9322,        38,
   52.9526,        42,
    52.973,        36,
   52.9934,        49,
   53.0137,        39,
   53.0341,        34,
   53.0545,        33,
   53.0749,        34,
   53.0953,        31,
   53.1157,        32,
   53.1361,        56,
   53.1565,        43,
   53.1768,        45,
   53.1972,        41,
   53.2176,        45,
    53.238,        45,
   53.2584,        53,
   53.2788,        46,
   53.2992,        40,
   53.3196,        40,
   53.3399,        28,
   53.3603,        47,
   53.3807,        46,
   53.4011,        44,
   53.4215,        36,
   53.4419,        36,
   53.4623,        38,
   53.4827,        34,
    53.503,        39,
   53.5234,        38,
   53.5438,        37,
   53.5642,        50,
   53.5846,        30,
    53.605,        35,
   53.6254,        40,
   53.6458,        41,
   53.6661,        25,
   53.6865,        51,
   53.7069,        39,
   53.7273,        36,
   53.7477,        42,
   53.7681,        35,
   53.7885,        36,
   53.8089,        48,
   53.8292,        33,
   53.8496,        38,
     53.87,        34,
   53.8904,        31,
   53.9108,        41,
   53.9312,        39,
   53.9516,        35,
    53.972,        39,
   53.9923,        34,
   54.0127,        45,
   54.0331,        53,
   54.0535,        31,
   54.0739,        45,
   54.0943,        41,
   54.1147,        38,
   54.1351,        43,
   54.1554,        39,
   54.1758,        49,
   54.1962,        35,
   54.2166,        55,
    54.237,        31,
   54.2574,        48,
   54.2778,        57,
   54.2982,        49,
   54.3185,        46,
   54.3389,        31,
   54.3593,        50,
   54.3797,        49,
   54.4001,        42,
   54.4205,        39,
   54.4409,        47,
   54.4613,        44,
   54.4816,        43,
    54.502,        42,
   54.5224,        44,
   54.5428,        48,
   54.5632,        53,
   54.5836,        46,
    54.604,        47,
   54.6244,        60,
   54.6447,        51,
   54.6651,        39,
   54.6855,        43,
   54.7059,        49,
   54.7263,        47,
   54.7467,        45,
   54.7671,        29,
   54.7875,        42,
   54.8078,        43,
   54.8282,        35,
   54.8486,        34,
    54.869,        39,
   54.8894,        32,
   54.9098,        44,
   54.9302,        40,
   54.9506,        37,
   54.9709,        29,
   54.9913,        39,
   55.0117,        36,
   55.0321,        29,
   55.0525,        45,
   55.0729,        35,
   55.0933,        33,
   55.1137,        33,
    55.134,        35,
   55.1544,        58,
   55.1748,        48,
   55.1952,        28,
   55.2156,        27,
    55.236,        34,
   55.2564,        36,
   55.2768,        32,
   55.2971,        37,
   55.3175,        31,
   55.3379,        42,
   55.3583,        43,
   55.3787,        36,
   55.3991,        37,
   55.4195,        34,
   55.4399,        39,
   55.4602,        37,
   55.4806,        35,
    55.501,        33,
   55.5214,        40,
   55.5418,        51,
   55.5622,        38,
   55.5826,        42,
    55.603,        28,
   55.6233,        43,
   55.6437,        39,
   55.6641,        28,
   55.6845,        29,
   55.7049,        31,
   55.7253,        42,
   55.7457,        38,
   55.7661,        31,
   55.7864,        34,
   55.8068,        36,
   55.8272,        54,
   55.8476,        35,
    55.868,        45,
   55.8884,        32,
   55.9088,        35,
   55.9292,        35,
   55.9495,        46,
   55.9699,        38,
   55.9903,        39,
   56.0107,        43,
   56.0311,        35,
   56.0515,        52,
   56.0719,        39,
   56.0923,        54,
   56.1126,        49,
    56.133,        38,
   56.1534,        44,
   56.1738,        45,
   56.1942,        38,
   56.2146,        44,
    56.235,        44,
   56.2554,        53,
   56.2757,        43,
   56.2961,        41,
   56.3165,        32,
   56.3369,        53,
   56.3573,        54,
   56.3777,        50,
   56.3981,        56,
   56.4185,        60,
   56.4388,        51,
   56.4592,        51,
   56.4796,        38,
      56.5,        40,
   56.5204,        41,
   56.5408,        38,
   56.5612,        43,
   56.5816,        39,
   56.6019,        36,
   56.6223,        45,
   56.6427,        32,
   56.6631,        50,
   56.6835,        39,
   56.7039,        47,
   56.7243,        40,
   56.7447,        34,
    56.765,        44,
   56.7854,        37,
   56.8058,        37,
   56.8262,        32,
   56.8466,        37,
    56.867,        35,
   56.8874,        37,
   56.9078,        33,
   56.9281,        36,
   56.9485,        33,
   56.9689,        30,
   56.9893,        38,
   57.0097,        39,
   57.0301,        34,
   57.0505,        31,
   57.0709,        41,
   57.0912,        35,
   57.1116,        40,
    57.132,        46,
   57.1524,        31,
   57.1728,        41,
   57.1932,        44,
   57.2136,        31,
    57.234,        49,
   57.2543,        36,
   57.2747,        42,
   57.2951,        34,
   57.3155,        37,
   57.3359,        39,
   57.3563,        42,
   57.3767,        48,
   57.3971,        44,
   57.4174,        40,
   57.4378,        35,
   57.4582,        42,
   57.4786,        34,
    57.499,        43,
   57.5194,        31,
   57.5398,        41,
   57.5602,        35,
   57.5805,        37,
   57.6009,        44,
   57.6213,        31,
   57.6417,        38,
   57.6621,        31,
   57.6825,        42,
   57.7029,        44,
   57.7233,        41,
   57.7436,        41,
    57.764,        34,
   57.7844,        34,
   57.8048,        26,
   57.8252,        32,
   57.8456,        39,
    57.866,        43,
   57.8864,        34,
   57.9067,        38,
   57.9271,        49,
   57.9475,        30,
   57.9679,        38,
   57.9883,        38,
   58.0087,        36,
   58.0291,        33,
   58.0495,        30,
   58.0698,        41,
   58.0902,        39,
   58.1106,        37,
    58.131,        49,
   58.1514,        41,
   58.1718,        40,
   58.1922,        33,
   58.2126,        41,
   58.2329,        41,
   58.2533,        27,
   58.2737,        40,
   58.2941,        39,
   58.3145,        45,
   58.3349,        38,
   58.3553,        36,
   58.3757,        36,
    58.396,        30,
   58.4164,        40,
   58.4368,        27,
   58.4572,        40,
   58.4776,        43,
    58.498,        46,
   58.5184,        56,
   58.5388,        30,
   58.5591,        49,
   58.5795,        42,
   58.5999,        42,
   58.6203,        38,
   58.6407,        42,
   58.6611,        31,
   58.6815,        40,
   58.7019,        40,
   58.7222,        33,
   58.7426,        35,
    58.763,        38,
   58.7834,        36,
   58.8038,        40,
   58.8242,        31,
   58.8446,        36,
    58.865,        32,
   58.8853,        31,
   58.9057,        36,
   58.9261,        19,
   58.9465,        39,
   58.9669,        32,
   58.9873,        32,
   59.0077,        36,
   59.0281,        42,
   59.0484,        35,
   59.0688,        45,
   59.0892,        29,
   59.1096,        40,
     59.13,        55,
   59.1504,        34,
   59.1708,        41,
   59.1912,        41,
   59.2116,        36,
   59.2319,        54,
   59.2523,        53,
   59.2727,        36,
   59.2931,        50,
   59.3135,        41,
   59.3339,        43,
   59.3543,        42,
   59.3747,        41,
    59.395,        44,
   59.4154,        41,
   59.4358,        37,
   59.4562,        35,
   59.4766,        41,
    59.497,        40,
   59.5174,        31,
   59.5378,        33,
   59.5581,        42,
   59.5785,        39,
   59.5989,        29,
   59.6193,        39,
   59.6397,        35,
   59.6601,        42,
   59.6805,        29,
   59.7009,        40,
   59.7212,        41,
   59.7416,        44,
    59.762,        38,
   59.7824,        37,
   59.8028,        42,
   59.8232,        38,
   59.8436,        25,
    59.864,        47,
   59.8843,        40,
   59.9047,        37,
   59.9251,        33,
   59.9455,        38,
   59.9659,        39,
   59.9863,        39,
   60.0067,        33,
   60.0271,        51,
   60.0474,        32,
   60.0678,        39,
   60.0882,        31,
   60.1086,        40,
    60.129,        48,
   60.1494,        44,
   60.1698,        37,
   60.1902,        36,
   60.2105,        38,
   60.2309,        45,
   60.2513,        44,
   60.2717,        37,
   60.2921,        38,
   60.3125,        37,
   60.3329,        49,
   60.3533,        45,
   60.3736,        39,
    60.394,        48,
   60.4144,        47,
   60.4348,        47,
   60.4552,        42,
   60.4756,        48,
    60.496,        43,
   60.5164,        46,
   60.5367,        49,
   60.5571,        50,
   60.5775,        49,
   60.5979,        53,
   60.6183,        64,
   60.6387,        47,
   60.6591,        59,
   60.6795,        55,
   60.6998,        47,
   60.7202,        75,
   60.7406,        65,
    60.761,        60,
   60.7814,        67,
   60.8018,        66,
   60.8222,        73,
   60.8426,        55,
   60.8629,        54,
   60.8833,        61,
   60.9037,        67,
   60.9241,        71,
   60.9445,        71,
   60.9649,        67,
   60.9853,        69,
   61.0057,        60,
    61.026,        59,
   61.0464,        59,
   61.0668,        57,
   61.0872,        58,
   61.1076,        68,
    61.128,        54,
   61.1484,        65,
   61.1688,        53,
   61.1891,        56,
   61.2095,        52,
   61.2299,        50,
   61.2503,        57,
   61.2707,        55,
   61.2911,        53,
   61.3115,        54,
   61.3319,        60,
   61.3522,        52,
   61.3726,        59,
    61.393,        55,
   61.4134,        59,
   61.4338,        58,
   61.4542,        55,
   61.4746,        50,
    61.495,        63,
   61.5153,        47,
   61.5357,        57,
   61.5561,        52,
   61.5765,        54,
   61.5969,        58,
   61.6173,        60,
   61.6377,        65,
   61.6581,        72,
   61.6784,       128,
   61.6988,       161,
   61.7192,       214,
   61.7396,       245,
     61.76,       284,
   61.7804,       244,
   61.8008,       225,
   61.8212,       153,
   61.8415,       142,
   61.8619,        96,
   61.8823,        86,
   61.9027,        75,
   61.9231,        58,
   61.9435,        62,
   61.9639,        62,
   61.9843,        49,
   62.0046,        56,
    62.025,        62,
   62.0454,        64,
   62.0658,        58,
   62.0862,        52,
   62.1066,        72,
    62.127,        64,
   62.1474,        57,
   62.1677,        60,
   62.1881,        55,
   62.2085,        58,
   62.2289,        74,
   62.2493,        67,
   62.2697,        65,
   62.2901,        58,
   62.3105,        59,
   62.3308,        46,
   62.3512,        55,
   62.3716,        59,
    62.392,        60,
   62.4124,        58,
   62.4328,        59,
   62.4532,        55,
   62.4736,        67,
   62.4939,        60,
   62.5143,        67,
   62.5347,        50,
   62.5551,        52,
   62.5755,        63,
   62.5959,        61,
   62.6163,        50,
   62.6367,        60,
    62.657,        59,
   62.6774,        50,
   62.6978,        55,
   62.7182,        64,
   62.7386,        66,
    62.759,        56,
   62.7794,        59,
   62.7998,        66,
   62.8201,        58,
   62.8405,        62,
   62.8609,        60,
   62.8813,        56,
   62.9017,        69,
   62.9221,        57,
   62.9425,        70,
   62.9629,        64,
   62.9832,        56,
   63.0036,        62,
    63.024,        65,
   63.0444,        52,
   63.0648,        62,
   63.0852,        53,
   63.1056,        51,
    63.126,        55,
   63.1463,        61,
   63.1667,        64,
   63.1871,        59,
   63.2075,        73,
   63.2279,        58,
   63.2483,        56,
   63.2687,        49,
   63.2891,        65,
   63.3094,        45,
   63.3298,        54,
   63.3502,        44,
   63.3706,        58,
    63.391,        42,
   63.4114,        48,
   63.4318,        62,
   63.4522,        65,
   63.4725,        58,
   63.4929,        52,
   63.5133,        60,
   63.5337,        57,
   63.5541,        68,
   63.5745,        66,
   63.5949,        65,
   63.6153,        49,
   63.6356,        44,
    63.656,        52,
   63.6764,        51,
   63.6968,        64,
   63.7172,        53,
   63.7376,        65,
    63.758,        59,
   63.7784,        56,
   63.7987,        75,
   63.8191,        66,
   63.8395,        63,
   63.8599,        55,
   63.8803,        62,
   63.9007,        65,
   63.9211,        65,
   63.9415,        66,
   63.9618,        57,
   63.9822,        65,
   64.0026,        60,
    64.023,        53,
   64.0434,        58,
   64.0638,        68,
   64.0842,        67,
   64.1046,        64,
   64.1249,        69,
   64.1453,        73,
   64.1657,        56,
   64.1861,        63,
   64.2065,        52,
   64.2269,        66,
   64.2473,        62,
   64.2677,        72,
    64.288,        57,
   64.3084,        45,
   64.3288,        58,
   64.3492,        69,
   64.3696,        61,
     64.39,        58,
   64.4104,        56,
   64.4308,        69,
   64.4511,        58,
   64.4715,        60,
   64.4919,        71,
   64.5123,        60,
   64.5327,        68,
   64.5531,        63,
   64.5735,        58,
   64.5939,        57,
   64.6142,        53,
   64.6346,        63,
    64.655,        54,
   64.6754,        55,
   64.6958,        48,
   64.7162,        63,
   64.7366,        68,
    64.757,        76,
   64.7773,        59,
   64.7977,        57,
   64.8181,        60,
   64.8385,        55,
   64.8589,        57,
   64.8793,        68,
   64.8997,        56,
   64.9201,        73,
   64.9404,        79,
   64.9608,        78,
   64.9812,        56,
   65.0016,        75,
