;RAW4.00
[RawHeader]
Date=04/16/2025
EstimatedTotalTime=646.4
FurtherDQLReading=0
HardwareIndicator=65519
MeasuredTotalTime=6.5364
MeasurementFlag=1
NumberOfMeasuredRanges=1
NumberOfRanges=1
Time=10:20:24

[VarInfo]
Type=USER
Flags=0
Value=Lab Manager

[VarInfo]
Type=SAMPLEID
Flags=0
Value=Commander Sample ID

[VarInfo]
Type=COMMENT
Flags=0
Value=

[VarInfo]
Type=UTF
Flags=0
Value=

[VarInfo]
Type=CREATOR
Flags=0
Value=V5Converter

[VarInfo]
Type=CREATOR_VERSION
Flags=0
Value=3.3.35.0

[HardwareConfiguration]
AbsorptionFactor=9999
ActivateAbsorber=0
Alpha1=1.5406
Alpha2=1.54439
AlphaAverage=1.54184
AlphaRatio=0.5
Analyzer=0
Anode=Cu
AntiScatteringSlit=9999
BeamOpticsFlags=0
Beta=1.39222
BetaRelativeIntensity=0
DeactivateAbsorber=0
DetectorSlit=9999
DivergenceSlit=9999
GoniometerControl=0
GoniometerDiameter=282
GoniometerModel=256
GoniometerStage=0
Monochromator=0
NearSampleSlit=9999
PrimarySollerSlit=9999
SampleChanger=0
SecondSollerSlit=9999
SynchronousAxis=0
ThinFilmAttachment=9999
WaveUnit=A

[RangeHeader]
ActuallyUsedLambda=1.54184
AdditionalDetectorMask=257
DataRecordLength=4
DelayTime=0
DisplayPlaneNumber=0
EstimatedScanTime=646
ExtraParametersMask=0
GeneratorCurrent=10
GeneratorVoltage=30
Increment=0.0203875
Increment3=0
NumberOfCompletedData=2944
NumberOfCounts=1
NumberOfDetectors=0
NumberOfDrives=2
NumberOfEncoderDrives=0
NumberOfMeasuredData=2944
NumberOfVaryingParameters=0
RangeStartTime=0
RotationSpeed=0
ScanMode=1
ScanType=Locked Coupled
SimulatedMeasConditions=0
SlitChangerIn=0
SmootingWidth=0
Start=5.00111
Steps=2944
SynchronousRotation=0
Time=38.4

[VarInfo]
Type=PSD_DISCRIM
Flags=0
Value=0.11;0.25

[VarInfo]
Type=OPTICS_V5
Flags=0
Value=H4sIAAAAAAAEAO0c23LiOvJXXDyds1vBGAMhU45PEcjMpk4YqECyM08pxQjQGV84viRh3/d/9ht2f2xbMjayfAkOkIQ5PCSFu2Wp1Td1t2Rpvz1bpvSIXY849nlFqdYqErYNZ0Ls2Xkl8KcnSqvym659cWziWNjHbtexFo6Nbb+HfCTB27b36dkj55W57y8+yfLT01P1Sa067kyu12qK/K1/PTLm2EInxPZ8ZBu4Er81efmtinRHPPJg4q/IwueVNR0xooc9wyULn03g+8IjpmNLfLsvrhMsrmAsmNsFdmFmg4c/sOEPkT8/r8g9/EgMLPNv8K3S44bYrok8b9VFzBP5AiNrAcCuY/uI2Njl+pVXxEU9dAw/QGZERf2kXmueNWryFbDJDSzaW5o0XRsBDycIusEj6AWZ5F+ITl2fItPDmpyH1r5Z5meCzckNhu6JQYFApI3ZL0+SdS2kh4p1hE2A65c2DIknmpzCaOEMONb3iLcw0VJPC0CTcxunu9G/DL5+v2f/epej7k3Gy9FbVDBRR+nReKxGpTLkpeJlwDoPhgSK/MlfLkDgYxcZP+iMBQUcusRC7pKhs1Vw1UIawLMhgTSkcfCAOYZIq5fL6qWcHDutpFn4TdWUvRSNsIWGCkSC1l0g+8fAnWD3BlM/g2HCTFc/vi5vKMlyCj4c3/x+D/863d9LqTjP10wlv/JgauQR6yAbYF78GCOubB+YGDFXgIb24HgkJDIcTJMTUI2KMnryko8S/8BUeuCSGbGRmUQolWhyoeaCjP3A0wfxnBJgLXpx9dx3ApAjSFGAaytErOG8JYPMGDrDminOorhsU47R0tRxpRFGJg51YEvjlblx02acQmbbMNPKdU9ySN6uTDdBoiBBnoeXzz62J9SoP4w9hxBOsRIArU+J8B13Geu1oslpoMYR40mMvFA8keHAfDk+6BFYk3mollYrOh2ub05TOejAvnAcEyMIFm5t4jPu9gjIjcZp18QiPmNLDPL0miZzT1oPT1Fg+nfIDDA3xKpX4B7xwc0z9HmFeowK7U/mSKCOY+x0mbjmyDSdp7XrEODQsjvHxg88WTeJAFo38HzHogKiNHJPWhhBbkpbJ/CdrouRj4eus8Cuv4wGy8AkZuIxDbuagNZ/DawH7OqK0lI1WQDCLEYGsm2wnvU0YgjlqBlq5Eok//1PTGSNUdh3Jli/BWuYwpIKqsmeI9fElo6U88n2O/vwNHLYW7a72dTT7M3JRNSl1oq/hEv5J3rE19ie+fOOuZgjRXAtInojF/PGxjucLz1iIJMZxGDacwIgKXJe//t3bClKtdmotbY36A1ZWS9mZf3QWdlQz96ElxC5o5m45KXwh85Npd14C25eYAhE81hJkYfNR/WsXq+/BR9vqK/PZSTDHhwn1yFFtbk/HrKcCF6kS6bAQB71Ebk38mnkwZgU86ob7I9Vnx0j8CCXhWiGhRYCu0T0R2SZoHCQ8bcaKX1T9hFkN9JB9hdsw1oBcZFQ2I3A2RFxQSQYljteGQjqWj6S14I7x/TTC+AK+j4yV5uv9zI/7mK5q7XXCD6fa5tytBu4LqiFwNEV9PA4anXWlvROHB06T2yHgGcdgx2ATxKZ+beEhu6cofJLXqFMcgirpTGn5e0/A+Jimvbqq9+0BpBGamF+HA5KqV57sSxMVvMxcmfY/2yimT508WfyTIcqbheR+UIFYPvawsY1BBDpyoHmeqWVO8i1MTleNnRNzJILc08xDyzOrlKJTnH6kAzmi0NkIV7NiwL5qEyIesQIJHthl7kyFKj3IyImAoujj17YPTPQY4HqWKA6FqiOBapjgepDcvNYoDoWqI4FqmOB6ligOhaojgWqY4HqWKA6FqiOBapjgepnKFBFNSj4KZanorN16fNq4rnPgtO8l9bCX7ICjhQVPMqd3L3sDwej+/B/mZO7bOBYFTPP7sp8XanwYK2Sd7C2/uYHaweLrnPhPA+mI8c0sZtxvDZEFByw5RpIvxjIlozwQLoEY0khMjx9/eu2ZcYEKWkPk4EuchMZzbcuNSb7FGSbfeQ2wT5Qlc3Z+evhVi7rmZXLdGjf3P0Bz8NxN5wmbOlw6nkOR30/h8PiCabIUTglOh6T+EVuB9BSP8dMKG5HPmdNRYbHEZGF/kZsvL234XoUxJrja6IXQk+zGQcP2M2oG7qZ1j7OkTMTCD87Wqs/03rK3KyVFsAFuv4L/X7lAcP4ErE9MBg8gR++IyFOkhvrO33FiL8co0/3Su2+nqflCeRLWp6p4Gm1zich5aPeUP86kz8godyRAtZK7dD9A5PZXCxWhMBdfZGSSoKtHX2UUpxqW4J13NomHQqS+TAlXT/TSThmEHGPe9L6xCZWYOknSvX07LR1pipqo92qq0rz9PLvaq0NvF61AEk8sx/5LVcN3vdrmU2ZtoOyae5GB5n4c3F7g8IOr57D8WsHe7+pVUJtn6WXiZcXAsbMXBJD686TuMyvIgcVukaBxpaBq5oXuDa2ClwZjemw9eMx89YOPDxhw4sDF3FUFj7yvUETEngZWtYI9Sz6jn4wnXrYz9PkzjPx+CUmbvYGK0iKmPWKsTLpnCWkWqvVmznriFpVFOWs0Wq3lIy147RZbTVrSl09Vfn1QuCCvvq+WriF4NV3E4wwhEST4tsJ4jbcV+09SA8MuuG1gzsKRBoyQsLMFuXuKYj72CYfEgk56LsKSsm1nAMa0RsLRuVvLEjyd+93FsTD7ePWgvY7FDtoecNEBp475iSzvHq9tJ/xMueI5vX3r98uv1+ymwt6dWk4R95rLsMRrESOx0wbtoAqyvQizZSvwajl4Wj9DH1cLvEOrsrJJ1yU7E93nUF7w9JFu2zpokwQCWsvdaHIXLuhfnyVxtAh8Iv6KKoAcQuvnGPq9cf37K+EU4qG2utejLJdiLnPzZj+O23GCNaYICZvO6b/xtsxhTSKAi7aken/tXZklMaGDuf0uCVzTMHKpmB5GVirWq+r7TP1tJ6VgSlNpapC/tY4be4hA+OuQ8Q2fxnh6uhYEpjwslwsHjaTTiKn4EkjetjEYwsjlUPHMLDnOS7B3itcbkRF2r0mMeVvMky+/xpXG/Vw0DnXK0VZ+kLE7j37V8bjhPTsPecaYxege0m5zrJDqFvbiqKjn6lYFw68jzpdrcwS4fvImFOTXd+USeErXYZfQzOYzfCk51KN8LEVFrupV72a6OMnZzxnX4esYRTNWo8W2CBTYoRn+PmWaTRILD1O8dAbjlt20JzlIQ2mH1HSqHGEfR8k50m8QcRXc1akDt3S8PqwgJLQriJvR7nLHZLT76hpGfQTBx7KXcQ7hpUoum5VkwW4xm/2hzJMBLdeeDgx+1Zf/f+19rgCFlgAAA==

[PSD]
ActualTwoTheta=9999
FirstUsedChannel=0
FixedPSD=0
PSDOpening=5.87161
PSDType=5

[Drive]
DriveFlags=1
DriveName=2Theta
DriveNumber=2
DriveOffset=0
OffsetIndex=0
OscillationAmplitude=0
OscillationSpeed=0
StartPosition=5.00111

[Drive]
DriveFlags=1
DriveName=Theta
DriveNumber=1
DriveOffset=0
OffsetIndex=0
OscillationAmplitude=0
OscillationSpeed=0
StartPosition=2.50055

[Data]
     Angle,       PSD,
   5.00111,      9454,
   5.02149,      9305,
   5.04188,      9109,
   5.06227,      8794,
   5.08266,      8529,
   5.10304,      8486,
   5.12343,      8203,
   5.14382,      7965,
   5.16421,      7516,
   5.18459,      7410,
   5.20498,      7338,
   5.22537,      7232,
   5.24576,      6911,
   5.26614,      6665,
   5.28653,      6348,
   5.30692,      6268,
   5.32731,      5954,
   5.34769,      6081,
   5.36808,      5751,
   5.38847,      5604,
   5.40886,      5306,
   5.42924,      5287,
   5.44963,      4995,
   5.47002,      4942,
   5.49041,      4747,
   5.51079,      4666,
   5.53118,      4560,
   5.55157,      4387,
   5.57196,      4116,
   5.59234,      3959,
   5.61273,      3939,
   5.63312,      3833,
   5.65351,      3658,
   5.67389,      3453,
   5.69428,      3350,
   5.71467,      3234,
   5.73506,      3185,
   5.75544,      3164,
   5.77583,      2996,
   5.79622,      2838,
   5.81661,      2775,
     5.837,      2647,
   5.85738,      2673,
   5.87777,      2501,
   5.89816,      2497,
   5.91855,      2334,
   5.93893,      2209,
   5.95932,      2248,
   5.97971,      2164,
    6.0001,      2051,
   6.02048,      1912,
   6.04087,      1913,
   6.06126,      1919,
   6.08165,      1843,
   6.10203,      1745,
   6.12242,      1760,
   6.14281,      1683,
    6.1632,      1608,
   6.18358,      1466,
   6.20397,      1446,
   6.22436,      1416,
   6.24475,      1357,
   6.26513,      1367,
   6.28552,      1231,
   6.30591,      1232,
    6.3263,      1119,
   6.34668,      1087,
   6.36707,       962,
   6.38746,      1036,
   6.40785,      1037,
   6.42823,       969,
   6.44862,       905,
   6.46901,       884,
    6.4894,       783,
   6.50978,       823,
   6.53017,       790,
   6.55056,       765,
   6.57095,       719,
   6.59133,       728,
   6.61172,       648,
   6.63211,       660,
    6.6525,       621,
   6.67288,       589,
   6.69327,       579,
   6.71366,       570,
   6.73405,       523,
   6.75443,       571,
   6.77482,       558,
   6.79521,       489,
    6.8156,       530,
   6.83598,       518,
   6.85637,       502,
   6.87676,       453,
   6.89715,       451,
   6.91753,       431,
   6.93792,       441,
   6.95831,       455,
    6.9787,       406,
   6.99908,       425,
   7.01947,       412,
   7.03986,       389,
   7.06025,       413,
   7.08063,       416,
   7.10102,       373,
   7.12141,       385,
    7.1418,       350,
   7.16218,       373,
   7.18257,       391,
   7.20296,       338,
   7.22335,       362,
   7.24373,       380,
   7.26412,       335,
   7.28451,       344,
    7.3049,       366,
   7.32528,       330,
   7.34567,       365,
   7.36606,       349,
   7.38645,       343,
   7.40683,       340,
   7.42722,       322,
   7.44761,       298,
     7.468,       268,
   7.48839,       288,
   7.50877,       345,
   7.52916,       316,
   7.54955,       289,
   7.56994,       267,
   7.59032,       324,
   7.61071,       284,
    7.6311,       272,
   7.65149,       318,
   7.67187,       266,
   7.69226,       259,
   7.71265,       286,
   7.73304,       293,
   7.75342,       265,
   7.77381,       260,
    7.7942,       283,
   7.81459,       271,
   7.83497,       266,
   7.85536,       242,
   7.87575,       268,
   7.89614,       239,
   7.91652,       261,
   7.93691,       252,
    7.9573,       230,
   7.97769,       239,
   7.99807,       245,
   8.01846,       259,
   8.03885,       256,
   8.05924,       251,
   8.07962,       249,
   8.10001,       242,
    8.1204,       221,
   8.14079,       236,
   8.16117,       205,
   8.18156,       247,
   8.20195,       221,
   8.22234,       222,
   8.24272,       249,
   8.26311,       207,
    8.2835,       214,
   8.30389,       225,
   8.32427,       228,
   8.34466,       239,
   8.36505,       239,
   8.38544,       246,
   8.40582,       216,
   8.42621,       212,
    8.4466,       212,
   8.46699,       211,
   8.48737,       189,
   8.50776,       212,
   8.52815,       204,
   8.54854,       195,
   8.56892,       222,
   8.58931,       204,
    8.6097,       206,
   8.63009,       186,
   8.65047,       217,
   8.67086,       178,
   8.69125,       177,
   8.71164,       183,
   8.73202,       178,
   8.75241,       218,
    8.7728,       199,
   8.79319,       182,
   8.81357,       195,
   8.83396,       193,
   8.85435,       181,
   8.87474,       191,
   8.89512,       199,
   8.91551,       182,
    8.9359,       178,
   8.95629,       206,
   8.97667,       166,
   8.99706,       198,
   9.01745,       197,
   9.03784,       171,
   9.05822,       151,
   9.07861,       191,
     9.099,       173,
   9.11939,       181,
   9.13977,       165,
   9.16016,       186,
   9.18055,       169,
   9.20094,       159,
   9.22133,       189,
   9.24171,       164,
    9.2621,       150,
   9.28249,       164,
   9.30288,       139,
   9.32326,       166,
   9.34365,       144,
   9.36404,       173,
   9.38443,       168,
   9.40481,       154,
    9.4252,       161,
   9.44559,       178,
   9.46598,       154,
   9.48636,       168,
   9.50675,       152,
   9.52714,       152,
   9.54753,       151,
   9.56791,       160,
    9.5883,       151,
   9.60869,       155,
   9.62908,       137,
   9.64946,       133,
   9.66985,       133,
   9.69024,       160,
   9.71063,       137,
   9.73101,       154,
    9.7514,       148,
   9.77179,       158,
   9.79218,       142,
   9.81256,       133,
   9.83295,       152,
   9.85334,       170,
   9.87373,       142,
   9.89411,       136,
    9.9145,       154,
   9.93489,       131,
   9.95528,       156,
   9.97566,       154,
   9.99605,       151,
   10.0164,       162,
   10.0368,       140,
   10.0572,       156,
   10.0776,       141,
    10.098,       157,
   10.1184,       146,
   10.1388,       153,
   10.1592,       142,
   10.1795,       122,
   10.1999,       161,
   10.2203,       152,
   10.2407,       124,
   10.2611,       135,
   10.2815,       133,
   10.3019,       113,
   10.3223,       120,
   10.3426,       139,
    10.363,       107,
   10.3834,       116,
   10.4038,       147,
   10.4242,       143,
   10.4446,       144,
    10.465,       138,
   10.4854,       129,
   10.5057,       141,
   10.5261,       138,
   10.5465,       128,
   10.5669,       121,
   10.5873,       122,
   10.6077,       121,
   10.6281,       125,
   10.6485,       127,
   10.6688,       123,
   10.6892,       132,
   10.7096,       129,
     10.73,       135,
   10.7504,       126,
   10.7708,       107,
   10.7912,       108,
   10.8116,       127,
   10.8319,       119,
   10.8523,       122,
   10.8727,       166,
   10.8931,       116,
   10.9135,       111,
   10.9339,       145,
   10.9543,       132,
   10.9747,       111,
    10.995,       110,
   11.0154,       109,
   11.0358,       116,
   11.0562,       117,
   11.0766,       133,
    11.097,       123,
   11.1174,       118,
   11.1378,       141,
   11.1581,       138,
   11.1785,       115,
   11.1989,       131,
   11.2193,       107,
   11.2397,       112,
   11.2601,       115,
   11.2805,       118,
   11.3009,       122,
   11.3212,       108,
   11.3416,       121,
    11.362,       109,
   11.3824,       105,
   11.4028,       103,
   11.4232,       111,
   11.4436,       111,
    11.464,       123,
   11.4843,       103,
   11.5047,       137,
   11.5251,       111,
   11.5455,       111,
   11.5659,       107,
   11.5863,        87,
   11.6067,       110,
   11.6271,       114,
   11.6474,       133,
   11.6678,       121,
   11.6882,       117,
   11.7086,       114,
    11.729,        91,
   11.7494,       125,
   11.7698,        94,
   11.7902,       114,
   11.8105,        95,
   11.8309,       108,
   11.8513,       105,
   11.8717,       110,
   11.8921,       118,
   11.9125,        92,
   11.9329,       133,
   11.9533,       123,
   11.9736,       121,
    11.994,       107,
   12.0144,       115,
   12.0348,       104,
   12.0552,        97,
   12.0756,       105,
    12.096,       111,
   12.1164,       108,
   12.1367,       107,
   12.1571,       108,
   12.1775,       115,
   12.1979,        88,
   12.2183,       126,
   12.2387,       122,
   12.2591,       104,
   12.2795,       101,
   12.2998,        93,
   12.3202,        94,
   12.3406,       113,
    12.361,       111,
   12.3814,       103,
   12.4018,       117,
   12.4222,       120,
   12.4426,       131,
   12.4629,        96,
   12.4833,        80,
   12.5037,       105,
   12.5241,       110,
   12.5445,       124,
   12.5649,       103,
   12.5853,       122,
   12.6057,        93,
    12.626,        89,
   12.6464,       103,
   12.6668,       107,
   12.6872,        88,
   12.7076,       110,
    12.728,       101,
   12.7484,       106,
   12.7688,       123,
   12.7891,       101,
   12.8095,       110,
   12.8299,       110,
   12.8503,        99,
   12.8707,       102,
   12.8911,        92,
   12.9115,       105,
   12.9319,       116,
   12.9522,        95,
   12.9726,        83,
    12.993,        99,
   13.0134,        96,
   13.0338,        79,
   13.0542,       112,
   13.0746,        85,
    13.095,        93,
   13.1153,        99,
   13.1357,        98,
   13.1561,        87,
   13.1765,       115,
   13.1969,        86,
   13.2173,        90,
   13.2377,        86,
   13.2581,        89,
   13.2784,       100,
   13.2988,        95,
   13.3192,        78,
   13.3396,        74,
     13.36,        78,
   13.3804,       103,
   13.4008,        95,
   13.4212,        98,
   13.4415,        89,
   13.4619,        91,
   13.4823,       100,
   13.5027,       103,
   13.5231,        80,
   13.5435,        99,
   13.5639,        74,
   13.5843,        86,
   13.6046,        90,
    13.625,        95,
   13.6454,        82,
   13.6658,       105,
   13.6862,        96,
   13.7066,        93,
    13.727,        88,
   13.7474,        86,
   13.7677,       102,
   13.7881,        88,
   13.8085,       101,
   13.8289,        99,
   13.8493,        89,
   13.8697,       102,
   13.8901,        82,
   13.9105,        86,
   13.9308,       102,
   13.9512,        85,
   13.9716,        80,
    13.992,        94,
   14.0124,        85,
   14.0328,        87,
   14.0532,        89,
   14.0736,        89,
   14.0939,        97,
   14.1143,        91,
   14.1347,        96,
   14.1551,       105,
   14.1755,       101,
   14.1959,        98,
   14.2163,        76,
   14.2367,        94,
    14.257,        85,
   14.2774,       103,
   14.2978,        99,
   14.3182,        88,
   14.3386,        76,
    14.359,        89,
   14.3794,        71,
   14.3998,       100,
   14.4201,        78,
   14.4405,        87,
   14.4609,        86,
   14.4813,       101,
   14.5017,        84,
   14.5221,        99,
   14.5425,        87,
   14.5629,        86,
   14.5832,        84,
   14.6036,        92,
    14.624,        77,
   14.6444,        98,
   14.6648,        87,
   14.6852,        67,
   14.7056,        93,
    14.726,        76,
   14.7463,        79,
   14.7667,        75,
   14.7871,        84,
   14.8075,       102,
   14.8279,        80,
   14.8483,        91,
   14.8687,        90,
   14.8891,       101,
   14.9094,        86,
   14.9298,        82,
   14.9502,        90,
   14.9706,        88,
    14.991,        96,
   15.0114,        96,
   15.0318,        82,
   15.0522,        81,
   15.0725,        92,
   15.0929,        86,
   15.1133,        80,
   15.1337,        89,
   15.1541,        84,
   15.1745,        91,
   15.1949,        85,
   15.2153,        76,
   15.2356,        89,
    15.256,        75,
   15.2764,        93,
   15.2968,        94,
   15.3172,        86,
   15.3376,        90,
    15.358,       102,
   15.3784,        78,
   15.3987,        88,
   15.4191,        93,
   15.4395,        83,
   15.4599,        83,
   15.4803,        86,
   15.5007,        95,
   15.5211,        69,
   15.5415,        74,
   15.5618,        90,
   15.5822,       102,
   15.6026,        70,
    15.623,        64,
   15.6434,        80,
   15.6638,        72,
   15.6842,        86,
   15.7046,        79,
   15.7249,        99,
   15.7453,        63,
   15.7657,        70,
   15.7861,       104,
   15.8065,        75,
   15.8269,        92,
   15.8473,        78,
   15.8677,        77,
    15.888,        83,
   15.9084,        77,
   15.9288,        91,
   15.9492,        75,
   15.9696,        89,
     15.99,        96,
   16.0104,        92,
   16.0308,        92,
   16.0511,        97,
   16.0715,        88,
   16.0919,        75,
   16.1123,        83,
   16.1327,        91,
   16.1531,        95,
   16.1735,        78,
   16.1939,        78,
   16.2142,        82,
   16.2346,        86,
    16.255,        92,
   16.2754,        79,
   16.2958,        80,
   16.3162,        82,
   16.3366,        91,
    16.357,        84,
   16.3773,        68,
   16.3977,        69,
   16.4181,        99,
   16.4385,        94,
   16.4589,       102,
   16.4793,        70,
   16.4997,        90,
   16.5201,        78,
   16.5404,        78,
   16.5608,        88,
   16.5812,        84,
   16.6016,        74,
    16.622,        72,
   16.6424,        92,
   16.6628,        99,
   16.6832,        82,
   16.7035,        76,
   16.7239,        89,
   16.7443,        82,
   16.7647,        88,
   16.7851,        86,
   16.8055,        83,
   16.8259,       106,
   16.8463,        83,
   16.8666,        72,
    16.887,        82,
   16.9074,        90,
   16.9278,        90,
   16.9482,        64,
   16.9686,        62,
    16.989,        68,
   17.0094,        87,
   17.0297,        93,
   17.0501,        82,
   17.0705,        92,
   17.0909,        86,
   17.1113,        81,
   17.1317,        73,
   17.1521,        71,
   17.1725,        74,
   17.1928,        79,
   17.2132,        93,
   17.2336,        83,
    17.254,        73,
   17.2744,        75,
   17.2948,        81,
   17.3152,        83,
   17.3356,        97,
   17.3559,        80,
   17.3763,        81,
   17.3967,        83,
   17.4171,        88,
   17.4375,        99,
   17.4579,        79,
   17.4783,        89,
   17.4987,       104,
   17.5191,        79,
   17.5394,        87,
   17.5598,        76,
   17.5802,        84,
   17.6006,        86,
    17.621,        75,
   17.6414,        90,
   17.6618,       111,
   17.6822,        84,
   17.7025,        98,
   17.7229,        97,
   17.7433,        82,
   17.7637,       108,
   17.7841,       103,
   17.8045,        77,
   17.8249,        87,
   17.8453,        88,
   17.8656,        96,
    17.886,        71,
   17.9064,        78,
   17.9268,       101,
   17.9472,        89,
   17.9676,        92,
    17.988,        96,
   18.0084,        96,
   18.0287,        98,
   18.0491,       101,
   18.0695,        79,
   18.0899,        80,
   18.1103,        96,
   18.1307,        91,
   18.1511,        77,
   18.1715,        90,
   18.1918,       103,
   18.2122,       113,
   18.2326,        91,
    18.253,        90,
   18.2734,        78,
   18.2938,        91,
   18.3142,        98,
   18.3346,        80,
   18.3549,        78,
   18.3753,        89,
   18.3957,        99,
   18.4161,        95,
   18.4365,       109,
   18.4569,        92,
   18.4773,        89,
   18.4977,       116,
    18.518,        94,
   18.5384,        92,
   18.5588,       102,
   18.5792,       103,
   18.5996,        87,
     18.62,       119,
   18.6404,        88,
   18.6608,        89,
   18.6811,       111,
   18.7015,        85,
   18.7219,       106,
   18.7423,        95,
   18.7627,       105,
   18.7831,        91,
   18.8035,       123,
   18.8239,       107,
   18.8442,       101,
   18.8646,       103,
    18.885,       107,
   18.9054,        97,
   18.9258,       106,
   18.9462,       104,
   18.9666,       123,
    18.987,       119,
   19.0073,       102,
   19.0277,       119,
   19.0481,        83,
   19.0685,       121,
   19.0889,       115,
   19.1093,        93,
   19.1297,        88,
   19.1501,       118,
   19.1704,       104,
   19.1908,       105,
   19.2112,       129,
   19.2316,       107,
    19.252,       116,
   19.2724,       101,
   19.2928,       100,
   19.3132,       134,
   19.3335,       123,
   19.3539,       109,
   19.3743,       101,
   19.3947,       111,
   19.4151,       143,
   19.4355,        93,
   19.4559,       113,
   19.4763,       119,
   19.4966,       106,
    19.517,       109,
   19.5374,       114,
   19.5578,        89,
   19.5782,       116,
   19.5986,       117,
    19.619,       118,
   19.6394,       116,
   19.6597,       111,
   19.6801,       116,
   19.7005,       105,
   19.7209,       114,
   19.7413,       120,
   19.7617,       116,
   19.7821,       117,
   19.8025,       114,
   19.8228,       105,
   19.8432,       125,
   19.8636,       111,
    19.884,       128,
   19.9044,       133,
   19.9248,       126,
   19.9452,       114,
   19.9656,       120,
   19.9859,       118,
   20.0063,       144,
   20.0267,       122,
   20.0471,       129,
   20.0675,       117,
   20.0879,       106,
   20.1083,       131,
   20.1287,       119,
    20.149,       117,
   20.1694,       116,
   20.1898,       109,
   20.2102,       107,
   20.2306,       133,
    20.251,       119,
   20.2714,       124,
   20.2918,       115,
   20.3121,       101,
   20.3325,       114,
   20.3529,       115,
   20.3733,       108,
   20.3937,       121,
   20.4141,        98,
   20.4345,        99,
   20.4549,       108,
   20.4752,       120,
   20.4956,       103,
    20.516,       129,
   20.5364,       157,
   20.5568,       123,
   20.5772,       120,
   20.5976,       115,
    20.618,       115,
   20.6383,       132,
   20.6587,       131,
   20.6791,       129,
   20.6995,       121,
   20.7199,       142,
   20.7403,       126,
   20.7607,       137,
   20.7811,       129,
   20.8014,       107,
   20.8218,       130,
   20.8422,       142,
   20.8626,       107,
    20.883,       111,
   20.9034,       131,
   20.9238,       103,
   20.9442,       125,
   20.9645,       130,
   20.9849,       109,
   21.0053,       116,
   21.0257,       124,
   21.0461,       119,
   21.0665,       140,
   21.0869,       126,
   21.1073,       132,
   21.1276,       146,
    21.148,       114,
   21.1684,       116,
   21.1888,       138,
   21.2092,       123,
   21.2296,       117,
     21.25,       121,
   21.2704,       128,
   21.2907,       127,
   21.3111,       136,
   21.3315,       119,
   21.3519,       117,
   21.3723,       139,
   21.3927,       128,
   21.4131,       148,
   21.4335,       144,
   21.4538,       135,
   21.4742,       166,
   21.4946,       173,
    21.515,       162,
   21.5354,       150,
   21.5558,       156,
   21.5762,       175,
   21.5966,       176,
   21.6169,       149,
   21.6373,       149,
   21.6577,       158,
   21.6781,       150,
   21.6985,       144,
   21.7189,       173,
   21.7393,       160,
   21.7597,       130,
     21.78,       131,
   21.8004,       141,
   21.8208,       106,
   21.8412,       115,
   21.8616,       123,
    21.882,       129,
   21.9024,       143,
   21.9228,       130,
   21.9431,       141,
   21.9635,       134,
   21.9839,       136,
   22.0043,       122,
   22.0247,       142,
   22.0451,       124,
   22.0655,       122,
   22.0859,       122,
   22.1062,       154,
   22.1266,       122,
    22.147,       127,
   22.1674,       126,
   22.1878,       129,
   22.2082,       129,
   22.2286,       128,
    22.249,       131,
   22.2693,       143,
   22.2897,       143,
   22.3101,        99,
   22.3305,       131,
   22.3509,       113,
   22.3713,       144,
   22.3917,       135,
   22.4121,       148,
   22.4324,       132,
   22.4528,       126,
   22.4732,       129,
   22.4936,       125,
    22.514,       119,
   22.5344,       115,
   22.5548,       126,
   22.5752,       127,
   22.5955,       121,
   22.6159,       127,
   22.6363,       149,
   22.6567,       143,
   22.6771,       132,
   22.6975,       150,
   22.7179,       148,
   22.7383,       109,
   22.7586,       121,
    22.779,       138,
   22.7994,       138,
   22.8198,        93,
   22.8402,       135,
   22.8606,       140,
    22.881,       130,
   22.9014,       127,
   22.9217,       124,
   22.9421,       151,
   22.9625,       127,
   22.9829,       127,
   23.0033,       136,
   23.0237,       133,
   23.0441,       120,
   23.0645,       128,
   23.0848,       104,
   23.1052,       135,
   23.1256,       135,
    23.146,       120,
   23.1664,       114,
   23.1868,       127,
   23.2072,       111,
   23.2276,       139,
   23.2479,       132,
   23.2683,       113,
   23.2887,       115,
   23.3091,       139,
   23.3295,       137,
   23.3499,       126,
   23.3703,       146,
   23.3907,       140,
    23.411,       126,
   23.4314,       124,
   23.4518,       121,
   23.4722,       126,
   23.4926,       118,
    23.513,       148,
   23.5334,       141,
   23.5538,       108,
   23.5741,       134,
   23.5945,       119,
   23.6149,       122,
   23.6353,       148,
   23.6557,       133,
   23.6761,        97,
   23.6965,       133,
   23.7169,       109,
   23.7372,       124,
   23.7576,       125,
    23.778,       135,
   23.7984,       118,
   23.8188,       147,
   23.8392,       118,
   23.8596,       120,
     23.88,       114,
   23.9003,       140,
   23.9207,       120,
   23.9411,       114,
   23.9615,       114,
   23.9819,       110,
   24.0023,       129,
   24.0227,       135,
   24.0431,       127,
   24.0634,       137,
   24.0838,       130,
   24.1042,       136,
   24.1246,       102,
    24.145,       116,
   24.1654,       105,
   24.1858,       127,
   24.2062,       108,
   24.2265,       133,
   24.2469,       136,
   24.2673,       115,
   24.2877,       124,
   24.3081,       111,
   24.3285,       135,
   24.3489,       117,
   24.3693,       135,
   24.3896,       121,
     24.41,       125,
   24.4304,       109,
   24.4508,       120,
   24.4712,       124,
   24.4916,       111,
    24.512,       115,
   24.5324,       120,
   24.5527,       125,
   24.5731,       119,
   24.5935,       139,
   24.6139,       120,
   24.6343,       135,
   24.6547,       138,
   24.6751,       128,
   24.6955,       142,
   24.7158,       147,
   24.7362,       125,
   24.7566,       130,
    24.777,       142,
   24.7974,       124,
   24.8178,       127,
   24.8382,       151,
   24.8586,       125,
   24.8789,       143,
   24.8993,       120,
   24.9197,       145,
   24.9401,       123,
   24.9605,       109,
   24.9809,       131,
   25.0013,       120,
   25.0217,       125,
    25.042,       120,
   25.0624,       129,
   25.0828,       122,
   25.1032,       107,
   25.1236,       114,
    25.144,       128,
   25.1644,       121,
   25.1848,       121,
   25.2051,       143,
   25.2255,       140,
   25.2459,       126,
   25.2663,       119,
   25.2867,       133,
   25.3071,       110,
   25.3275,       129,
   25.3479,       131,
   25.3682,       136,
   25.3886,       136,
    25.409,       115,
   25.4294,       132,
   25.4498,       125,
   25.4702,       127,
   25.4906,       153,
    25.511,       108,
   25.5313,       115,
   25.5517,       116,
   25.5721,       139,
   25.5925,       123,
   25.6129,       116,
   25.6333,       134,
   25.6537,        99,
   25.6741,       129,
   25.6944,       126,
   25.7148,       127,
   25.7352,       115,
   25.7556,       123,
    25.776,       151,
   25.7964,       121,
   25.8168,       141,
   25.8372,       104,
   25.8576,       131,
   25.8779,       135,
   25.8983,       127,
   25.9187,       114,
   25.9391,       124,
   25.9595,       134,
   25.9799,       135,
   26.0003,       124,
   26.0207,       123,
    26.041,       116,
   26.0614,       131,
   26.0818,       113,
   26.1022,       114,
   26.1226,       141,
    26.143,       125,
   26.1634,       124,
   26.1838,       134,
   26.2041,       145,
   26.2245,       126,
   26.2449,       135,
   26.2653,       128,
   26.2857,       102,
   26.3061,       103,
   26.3265,       126,
   26.3469,       123,
   26.3672,       102,
   26.3876,       125,
    26.408,       115,
   26.4284,       124,
   26.4488,       122,
   26.4692,       129,
   26.4896,       124,
     26.51,       131,
   26.5303,        92,
   26.5507,       132,
   26.5711,       133,
   26.5915,       113,
   26.6119,       119,
   26.6323,       132,
   26.6527,       113,
   26.6731,       122,
   26.6934,       134,
   26.7138,       130,
   26.7342,       113,
   26.7546,       145,
    26.775,       127,
   26.7954,       150,
   26.8158,       113,
   26.8362,       116,
   26.8565,       133,
   26.8769,       119,
   26.8973,       134,
   26.9177,       122,
   26.9381,       117,
   26.9585,       119,
   26.9789,       120,
   26.9993,        91,
   27.0196,       136,
     27.04,       116,
   27.0604,       126,
   27.0808,       129,
   27.1012,       129,
   27.1216,       121,
    27.142,       124,
   27.1624,       138,
   27.1827,       131,
   27.2031,       126,
   27.2235,       110,
   27.2439,       148,
   27.2643,       126,
   27.2847,       143,
   27.3051,       122,
   27.3255,       168,
   27.3458,       136,
   27.3662,       151,
   27.3866,       147,
    27.407,       114,
   27.4274,       157,
   27.4478,       122,
   27.4682,       115,
   27.4886,       140,
   27.5089,       134,
   27.5293,       151,
   27.5497,       147,
   27.5701,       128,
   27.5905,       119,
   27.6109,       131,
   27.6313,       124,
   27.6517,       128,
    27.672,       145,
   27.6924,       116,
   27.7128,       131,
   27.7332,       140,
   27.7536,       136,
    27.774,       132,
   27.7944,       127,
   27.8148,       150,
   27.8351,       140,
   27.8555,       150,
   27.8759,       111,
   27.8963,       101,
   27.9167,       115,
   27.9371,       111,
   27.9575,       113,
   27.9779,       134,
   27.9982,       116,
   28.0186,       112,
    28.039,       103,
   28.0594,        82,
   28.0798,       108,
   28.1002,       125,
   28.1206,       139,
    28.141,       143,
   28.1613,       119,
   28.1817,       126,
   28.2021,       127,
   28.2225,       110,
   28.2429,       117,
   28.2633,       113,
   28.2837,       127,
   28.3041,       120,
   28.3244,       120,
   28.3448,       118,
   28.3652,       112,
   28.3856,       134,
    28.406,       119,
   28.4264,       111,
   28.4468,       105,
   28.4672,       125,
   28.4875,       123,
   28.5079,       127,
   28.5283,       125,
   28.5487,       138,
   28.5691,       134,
   28.5895,       149,
   28.6099,       133,
   28.6303,       126,
   28.6506,       131,
    28.671,       113,
   28.6914,       100,
   28.7118,       107,
   28.7322,       125,
   28.7526,       125,
    28.773,       117,
   28.7934,       117,
   28.8137,       113,
   28.8341,       127,
   28.8545,       142,
   28.8749,       134,
   28.8953,       142,
   28.9157,       114,
   28.9361,       107,
   28.9565,       131,
   28.9768,       111,
   28.9972,       143,
   29.0176,       106,
    29.038,       140,
   29.0584,       126,
   29.0788,       139,
   29.0992,       124,
   29.1196,       130,
   29.1399,       127,
   29.1603,       137,
   29.1807,       104,
   29.2011,       133,
   29.2215,       143,
   29.2419,       109,
   29.2623,       130,
   29.2827,       131,
    29.303,       119,
   29.3234,       119,
   29.3438,       110,
   29.3642,       100,
   29.3846,       128,
    29.405,       125,
   29.4254,       129,
   29.4458,       126,
   29.4661,       116,
   29.4865,       100,
   29.5069,       107,
   29.5273,       117,
   29.5477,       119,
   29.5681,       121,
   29.5885,       118,
   29.6089,       127,
   29.6292,       139,
   29.6496,       120,
     29.67,       112,
   29.6904,       127,
   29.7108,       100,
   29.7312,       125,
   29.7516,       121,
    29.772,       118,
   29.7923,       132,
   29.8127,       141,
   29.8331,        98,
   29.8535,       128,
   29.8739,       126,
   29.8943,       124,
   29.9147,       127,
   29.9351,       116,
   29.9554,       138,
   29.9758,       135,
   29.9962,       129,
   30.0166,       143,
    30.037,       136,
   30.0574,       124,
   30.0778,       115,
   30.0982,       124,
   30.1185,       125,
   30.1389,       167,
   30.1593,       142,
   30.1797,       151,
   30.2001,       136,
   30.2205,       173,
   30.2409,       144,
   30.2613,       146,
   30.2816,       142,
    30.302,       170,
   30.3224,       176,
   30.3428,       186,
   30.3632,       160,
   30.3836,       187,
    30.404,       183,
   30.4244,       208,
   30.4447,       180,
   30.4651,       210,
   30.4855,       250,
   30.5059,       229,
   30.5263,       250,
   30.5467,       282,
   30.5671,       317,
   30.5875,       337,
   30.6078,       346,
   30.6282,       331,
   30.6486,       354,
    30.669,       318,
   30.6894,       305,
   30.7098,       298,
   30.7302,       297,
   30.7506,       282,
   30.7709,       249,
   30.7913,       249,
   30.8117,       216,
   30.8321,       210,
   30.8525,       194,
   30.8729,       180,
   30.8933,       183,
   30.9137,       178,
    30.934,       170,
   30.9544,       164,
   30.9748,       153,
   30.9952,       156,
   31.0156,       147,
    31.036,       171,
   31.0564,       148,
   31.0768,       123,
   31.0971,       135,
   31.1175,       138,
   31.1379,       128,
   31.1583,       132,
   31.1787,       121,
   31.1991,       126,
   31.2195,       107,
   31.2399,       127,
   31.2602,       108,
   31.2806,       138,
    31.301,       138,
   31.3214,       116,
   31.3418,       121,
   31.3622,       110,
   31.3826,       118,
    31.403,       125,
   31.4233,       132,
   31.4437,       132,
   31.4641,       113,
   31.4845,       146,
   31.5049,       115,
   31.5253,       129,
   31.5457,       115,
   31.5661,       105,
   31.5864,       103,
   31.6068,       122,
   31.6272,        94,
   31.6476,        99,
    31.668,       132,
   31.6884,       107,
   31.7088,       121,
   31.7292,       126,
   31.7495,       114,
   31.7699,       123,
   31.7903,       114,
   31.8107,       118,
   31.8311,       109,
   31.8515,       101,
   31.8719,       124,
   31.8923,       141,
   31.9126,       123,
    31.933,       109,
   31.9534,       109,
   31.9738,       102,
   31.9942,       113,
   32.0146,       115,
    32.035,       116,
   32.0554,       112,
   32.0757,        93,
   32.0961,       110,
   32.1165,       103,
   32.1369,       114,
   32.1573,       108,
   32.1777,       121,
   32.1981,       115,
   32.2185,       115,
   32.2388,       138,
   32.2592,       122,
   32.2796,       110,
      32.3,       120,
   32.3204,       136,
   32.3408,       129,
   32.3612,       122,
   32.3816,       111,
   32.4019,       129,
   32.4223,       128,
   32.4427,       135,
   32.4631,       136,
   32.4835,       120,
   32.5039,       127,
   32.5243,       108,
   32.5447,       134,
    32.565,       119,
   32.5854,       126,
   32.6058,       123,
   32.6262,       118,
   32.6466,       129,
    32.667,       115,
   32.6874,       119,
   32.7078,       141,
   32.7281,       125,
   32.7485,       138,
   32.7689,       135,
   32.7893,       133,
   32.8097,       123,
   32.8301,       139,
   32.8505,       121,
   32.8709,       123,
   32.8912,       149,
   32.9116,       140,
    32.932,       135,
   32.9524,       148,
   32.9728,       173,
   32.9932,       171,
   33.0136,       133,
    33.034,       124,
   33.0543,       148,
   33.0747,       159,
   33.0951,       118,
   33.1155,       127,
   33.1359,       122,
   33.1563,       130,
   33.1767,       113,
   33.1971,       135,
   33.2174,       131,
   33.2378,       121,
   33.2582,       142,
   33.2786,       124,
    33.299,       122,
   33.3194,       117,
   33.3398,       103,
   33.3602,       115,
   33.3805,        85,
   33.4009,       104,
   33.4213,       114,
   33.4417,       114,
   33.4621,        92,
   33.4825,        91,
   33.5029,        99,
   33.5233,        94,
   33.5436,       109,
    33.564,       124,
   33.5844,       113,
   33.6048,       108,
   33.6252,       118,
   33.6456,       118,
    33.666,       132,
   33.6864,       120,
   33.7067,       108,
   33.7271,       105,
   33.7475,       104,
   33.7679,       112,
   33.7883,        92,
   33.8087,       118,
   33.8291,        97,
   33.8495,       120,
   33.8698,        98,
   33.8902,        89,
   33.9106,        86,
    33.931,       117,
   33.9514,       103,
   33.9718,       103,
   33.9922,       100,
   34.0126,        91,
   34.0329,        84,
   34.0533,       120,
   34.0737,       126,
   34.0941,       119,
   34.1145,       101,
   34.1349,       118,
   34.1553,       112,
   34.1757,       107,
   34.1961,       108,
   34.2164,       111,
   34.2368,       106,
   34.2572,       125,
   34.2776,       131,
    34.298,       107,
   34.3184,       113,
   34.3388,       110,
   34.3592,       127,
   34.3795,        98,
   34.3999,       125,
   34.4203,       107,
   34.4407,       108,
   34.4611,       107,
   34.4815,       112,
   34.5019,       106,
   34.5223,       117,
   34.5426,       125,
    34.563,       122,
   34.5834,       104,
   34.6038,        94,
   34.6242,       117,
   34.6446,       110,
    34.665,       116,
   34.6854,       110,
   34.7057,       110,
   34.7261,       117,
   34.7465,       117,
   34.7669,       104,
   34.7873,        93,
   34.8077,        90,
   34.8281,       107,
   34.8485,        99,
   34.8688,       100,
   34.8892,        92,
   34.9096,       100,
     34.93,        91,
   34.9504,       102,
   34.9708,       101,
   34.9912,       108,
   35.0116,       112,
   35.0319,       120,
   35.0523,       107,
   35.0727,        99,
   35.0931,       128,
   35.1135,       108,
   35.1339,       119,
   35.1543,       117,
   35.1747,       112,
    35.195,       122,
   35.2154,       110,
   35.2358,       130,
   35.2562,       121,
   35.2766,       132,
    35.297,       132,
   35.3174,       131,
   35.3378,       121,
   35.3581,       123,
   35.3785,       164,
   35.3989,       133,
   35.4193,       150,
   35.4397,       147,
   35.4601,       154,
   35.4805,       140,
   35.5009,       178,
   35.5212,       165,
   35.5416,       150,
    35.562,       147,
   35.5824,       166,
   35.6028,       151,
   35.6232,       147,
   35.6436,       138,
    35.664,       135,
   35.6843,       143,
   35.7047,       130,
   35.7251,       133,
   35.7455,       120,
   35.7659,       117,
   35.7863,       120,
   35.8067,       122,
   35.8271,       139,
   35.8474,       121,
   35.8678,       113,
   35.8882,       105,
   35.9086,       132,
    35.929,       124,
   35.9494,       141,
   35.9698,       121,
   35.9902,       130,
   36.0105,       122,
   36.0309,       148,
   36.0513,       140,
   36.0717,       158,
   36.0921,       111,
   36.1125,       122,
   36.1329,       124,
   36.1533,       134,
   36.1736,       123,
    36.194,       117,
   36.2144,       108,
   36.2348,       129,
   36.2552,       122,
   36.2756,       119,
    36.296,       113,
   36.3164,       116,
   36.3367,       107,
   36.3571,       100,
   36.3775,       107,
   36.3979,       112,
   36.4183,        93,
   36.4387,       131,
   36.4591,       110,
   36.4795,       118,
   36.4998,       131,
   36.5202,       103,
   36.5406,       118,
    36.561,       114,
   36.5814,       101,
   36.6018,       120,
   36.6222,        95,
   36.6426,       120,
   36.6629,       105,
   36.6833,        98,
   36.7037,       108,
   36.7241,        95,
   36.7445,       107,
   36.7649,       112,
   36.7853,       124,
   36.8057,       104,
    36.826,       110,
   36.8464,       114,
   36.8668,       102,
   36.8872,       118,
   36.9076,       116,
    36.928,       115,
   36.9484,       106,
   36.9688,       101,
   36.9891,       109,
   37.0095,        91,
   37.0299,        97,
   37.0503,       115,
   37.0707,       120,
   37.0911,       112,
   37.1115,        97,
   37.1319,       108,
   37.1522,       101,
   37.1726,       100,
    37.193,       127,
   37.2134,       110,
   37.2338,       125,
   37.2542,       110,
   37.2746,       121,
    37.295,       119,
   37.3153,       132,
   37.3357,       114,
   37.3561,       113,
   37.3765,       104,
   37.3969,       102,
   37.4173,       110,
   37.4377,       104,
   37.4581,       113,
   37.4784,       136,
   37.4988,       140,
   37.5192,       106,
   37.5396,       109,
     37.56,       122,
   37.5804,       114,
   37.6008,       116,
   37.6212,       114,
   37.6415,       111,
   37.6619,       133,
   37.6823,       110,
   37.7027,       127,
   37.7231,       123,
   37.7435,       130,
   37.7639,        88,
   37.7843,       126,
   37.8046,       109,
    37.825,       110,
   37.8454,       136,
   37.8658,       126,
   37.8862,       104,
   37.9066,       107,
    37.927,        98,
   37.9474,       112,
   37.9677,       116,
   37.9881,       105,
   38.0085,       120,
   38.0289,       104,
   38.0493,       103,
   38.0697,       117,
   38.0901,       119,
   38.1105,       113,
   38.1308,       120,
   38.1512,       111,
   38.1716,       123,
    38.192,       117,
   38.2124,       118,
   38.2328,       111,
   38.2532,       108,
   38.2736,       117,
   38.2939,       104,
   38.3143,       114,
   38.3347,       113,
   38.3551,        99,
   38.3755,        91,
   38.3959,       109,
   38.4163,       111,
   38.4367,       112,
    38.457,       112,
   38.4774,       107,
   38.4978,       106,
   38.5182,       124,
   38.5386,       115,
    38.559,       104,
   38.5794,       107,
   38.5998,        99,
   38.6201,       104,
   38.6405,       115,
   38.6609,       101,
   38.6813,       117,
   38.7017,        92,
   38.7221,        92,
   38.7425,        99,
   38.7629,       109,
   38.7832,       125,
   38.8036,       119,
    38.824,       108,
   38.8444,        95,
   38.8648,        96,
   38.8852,       100,
   38.9056,        89,
    38.926,       106,
   38.9463,       101,
   38.9667,       128,
   38.9871,       106,
   39.0075,       114,
   39.0279,       109,
   39.0483,        97,
   39.0687,        80,
   39.0891,       111,
   39.1094,        86,
   39.1298,        97,
   39.1502,       103,
   39.1706,       100,
    39.191,       101,
   39.2114,       112,
   39.2318,        90,
   39.2522,        91,
   39.2725,        89,
   39.2929,        87,
   39.3133,        79,
   39.3337,        92,
   39.3541,        95,
   39.3745,        98,
   39.3949,       111,
   39.4153,       102,
   39.4356,        87,
    39.456,        95,
   39.4764,       104,
   39.4968,       117,
   39.5172,        93,
   39.5376,       105,
    39.558,       103,
   39.5784,       100,
   39.5987,        96,
   39.6191,        85,
   39.6395,        99,
   39.6599,        86,
   39.6803,        96,
   39.7007,       113,
   39.7211,       106,
   39.7415,        95,
   39.7618,        99,
   39.7822,        96,
   39.8026,        86,
    39.823,        94,
   39.8434,       101,
   39.8638,        86,
   39.8842,       109,
   39.9046,        94,
   39.9249,        93,
   39.9453,        95,
   39.9657,        83,
   39.9861,        98,
   40.0065,       105,
   40.0269,        71,
   40.0473,        89,
   40.0677,       105,
    40.088,       102,
   40.1084,        84,
   40.1288,       109,
   40.1492,        98,
   40.1696,       109,
     40.19,        91,
   40.2104,        99,
   40.2308,        85,
   40.2511,        89,
   40.2715,        85,
   40.2919,        81,
   40.3123,        78,
   40.3327,        88,
   40.3531,       111,
   40.3735,        99,
   40.3939,        83,
   40.4142,        96,
   40.4346,        96,
    40.455,        99,
   40.4754,        90,
   40.4958,       100,
   40.5162,        85,
   40.5366,        80,
    40.557,       104,
   40.5773,        96,
   40.5977,       105,
   40.6181,        92,
   40.6385,        94,
   40.6589,        99,
   40.6793,        83,
   40.6997,        88,
   40.7201,        93,
   40.7404,        90,
   40.7608,       103,
   40.7812,       102,
   40.8016,        95,
    40.822,        94,
   40.8424,       102,
   40.8628,       114,
   40.8832,        94,
   40.9035,        92,
   40.9239,       105,
   40.9443,        95,
   40.9647,        83,
   40.9851,        94,
   41.0055,        93,
   41.0259,       103,
   41.0463,        97,
   41.0666,        72,
    41.087,        86,
   41.1074,       102,
   41.1278,        96,
   41.1482,        99,
   41.1686,       117,
    41.189,        83,
   41.2094,        92,
   41.2297,        97,
   41.2501,        96,
   41.2705,       102,
   41.2909,        95,
   41.3113,       100,
   41.3317,        90,
   41.3521,       104,
   41.3725,        85,
   41.3928,       115,
   41.4132,       100,
   41.4336,        86,
    41.454,       100,
   41.4744,        98,
   41.4948,       100,
   41.5152,       107,
   41.5356,       105,
   41.5559,        96,
   41.5763,        66,
   41.5967,        86,
   41.6171,        71,
   41.6375,        95,
   41.6579,        73,
   41.6783,       106,
   41.6987,       113,
    41.719,       104,
   41.7394,        87,
   41.7598,        97,
   41.7802,       100,
   41.8006,        88,
    41.821,       103,
   41.8414,        92,
   41.8618,       125,
   41.8821,        94,
   41.9025,       100,
   41.9229,        84,
   41.9433,        83,
   41.9637,        97,
   41.9841,        85,
   42.0045,        96,
   42.0249,        86,
   42.0452,        85,
   42.0656,        96,
    42.086,       102,
   42.1064,        81,
   42.1268,        68,
   42.1472,        93,
   42.1676,        81,
    42.188,        71,
   42.2083,        91,
   42.2287,        97,
   42.2491,       107,
   42.2695,        89,
   42.2899,        77,
   42.3103,        91,
   42.3307,        81,
   42.3511,       100,
   42.3714,        79,
   42.3918,        92,
   42.4122,        88,
   42.4326,        79,
    42.453,        94,
   42.4734,        68,
   42.4938,        83,
   42.5142,        83,
   42.5346,        72,
   42.5549,        95,
   42.5753,        73,
   42.5957,        72,
   42.6161,        88,
   42.6365,        93,
   42.6569,        76,
   42.6773,        62,
   42.6977,        95,
    42.718,        92,
   42.7384,        81,
   42.7588,        82,
   42.7792,        68,
   42.7996,        76,
     42.82,        75,
   42.8404,        87,
   42.8608,        77,
   42.8811,        82,
   42.9015,        77,
   42.9219,        88,
   42.9423,        85,
   42.9627,        82,
   42.9831,        82,
   43.0035,        97,
   43.0239,        75,
   43.0442,        86,
   43.0646,        88,
    43.085,        93,
   43.1054,        82,
   43.1258,        87,
   43.1462,        62,
   43.1666,        70,
    43.187,        60,
   43.2073,        91,
   43.2277,        86,
   43.2481,        79,
   43.2685,        83,
   43.2889,        83,
   43.3093,        78,
   43.3297,        86,
   43.3501,        76,
   43.3704,        78,
   43.3908,        76,
   43.4112,        73,
   43.4316,        80,
    43.452,        76,
   43.4724,        72,
   43.4928,        74,
   43.5132,        73,
   43.5335,        74,
   43.5539,        67,
   43.5743,        69,
   43.5947,        81,
   43.6151,        90,
   43.6355,        62,
   43.6559,        65,
   43.6763,        79,
   43.6966,        79,
    43.717,        86,
   43.7374,        73,
   43.7578,        72,
   43.7782,        73,
   43.7986,        79,
    43.819,        91,
   43.8394,        89,
   43.8597,        88,
   43.8801,        80,
   43.9005,        84,
   43.9209,        81,
   43.9413,        65,
   43.9617,        68,
   43.9821,        76,
   44.0025,        92,
   44.0228,        80,
   44.0432,        67,
   44.0636,        96,
    44.084,        84,
   44.1044,        78,
   44.1248,        80,
   44.1452,        70,
   44.1656,        78,
   44.1859,        58,
   44.2063,        74,
   44.2267,        72,
   44.2471,        89,
   44.2675,        70,
   44.2879,        78,
   44.3083,        80,
   44.3287,        65,
    44.349,        84,
   44.3694,        77,
   44.3898,        77,
   44.4102,        77,
   44.4306,        77,
    44.451,        74,
   44.4714,        87,
   44.4918,        76,
   44.5121,        83,
   44.5325,        71,
   44.5529,        82,
   44.5733,        79,
   44.5937,        69,
   44.6141,        70,
   44.6345,        87,
   44.6549,        70,
   44.6752,        77,
   44.6956,        82,
    44.716,        78,
   44.7364,        70,
   44.7568,        90,
   44.7772,        80,
   44.7976,        71,
    44.818,        70,
   44.8383,        62,
   44.8587,        79,
   44.8791,        71,
   44.8995,        68,
   44.9199,        76,
   44.9403,        76,
   44.9607,        65,
   44.9811,        84,
   45.0014,        65,
   45.0218,        88,
   45.0422,        75,
   45.0626,        82,
    45.083,        74,
   45.1034,        91,
   45.1238,        73,
   45.1442,        77,
   45.1645,        76,
   45.1849,        74,
   45.2053,        75,
   45.2257,        61,
   45.2461,        86,
   45.2665,        67,
   45.2869,        76,
   45.3073,        85,
   45.3276,        64,
    45.348,        62,
   45.3684,        72,
   45.3888,        70,
   45.4092,        77,
   45.4296,        73,
     45.45,        69,
   45.4704,        68,
   45.4907,        71,
   45.5111,        99,
   45.5315,        81,
   45.5519,        63,
   45.5723,        81,
   45.5927,        88,
   45.6131,        77,
   45.6335,        80,
   45.6538,        82,
   45.6742,        88,
   45.6946,        81,
    45.715,        89,
   45.7354,        90,
   45.7558,        80,
   45.7762,        99,
   45.7966,        92,
   45.8169,        88,
   45.8373,        71,
   45.8577,        76,
   45.8781,        74,
   45.8985,        77,
   45.9189,        85,
   45.9393,        61,
   45.9597,        82,
     45.98,        83,
   46.0004,        81,
   46.0208,        67,
   46.0412,        66,
   46.0616,        84,
    46.082,        88,
   46.1024,        80,
   46.1228,        81,
   46.1431,        66,
   46.1635,        77,
   46.1839,        78,
   46.2043,        83,
   46.2247,        62,
   46.2451,        86,
   46.2655,        71,
   46.2859,        79,
   46.3062,        79,
   46.3266,        64,
    46.347,        71,
   46.3674,        81,
   46.3878,        55,
   46.4082,        63,
   46.4286,        75,
    46.449,        72,
   46.4693,        70,
   46.4897,        76,
   46.5101,        85,
   46.5305,        72,
   46.5509,        70,
   46.5713,        77,
   46.5917,        82,
   46.6121,        79,
   46.6324,        82,
   46.6528,        66,
   46.6732,        76,
   46.6936,        59,
    46.714,        64,
   46.7344,        58,
   46.7548,        62,
   46.7752,        86,
   46.7955,        75,
   46.8159,        66,
   46.8363,        75,
   46.8567,        65,
   46.8771,        78,
   46.8975,        61,
   46.9179,        81,
   46.9383,        67,
   46.9586,        68,
    46.979,        69,
   46.9994,        83,
   47.0198,        81,
   47.0402,        63,
   47.0606,        73,
    47.081,        81,
   47.1014,        64,
   47.1217,        83,
   47.1421,        75,
   47.1625,        60,
   47.1829,        68,
   47.2033,        58,
   47.2237,        66,
   47.2441,        64,
   47.2645,        72,
   47.2848,        66,
   47.3052,        56,
   47.3256,        60,
    47.346,        57,
   47.3664,        66,
   47.3868,        80,
   47.4072,        84,
   47.4276,        69,
   47.4479,        84,
   47.4683,        72,
   47.4887,        59,
   47.5091,        62,
   47.5295,        69,
   47.5499,        72,
   47.5703,        80,
   47.5907,        66,
    47.611,        67,
   47.6314,        72,
   47.6518,        61,
   47.6722,        71,
   47.6926,        69,
    47.713,        85,
   47.7334,        85,
   47.7538,        85,
   47.7741,        88,
   47.7945,        65,
   47.8149,        71,
   47.8353,        73,
   47.8557,        72,
   47.8761,        75,
   47.8965,        72,
   47.9169,        77,
   47.9372,        74,
   47.9576,        70,
    47.978,        78,
   47.9984,        65,
   48.0188,        77,
   48.0392,        63,
   48.0596,        65,
     48.08,        68,
   48.1003,        71,
   48.1207,        83,
   48.1411,        47,
   48.1615,        57,
   48.1819,        67,
   48.2023,        67,
   48.2227,        56,
   48.2431,        78,
   48.2634,        62,
   48.2838,        61,
   48.3042,        74,
   48.3246,        65,
    48.345,        75,
   48.3654,        75,
   48.3858,        77,
   48.4062,        62,
   48.4265,        67,
   48.4469,        61,
   48.4673,        67,
   48.4877,        65,
   48.5081,        49,
   48.5285,        52,
   48.5489,        72,
   48.5693,        60,
   48.5896,        66,
     48.61,        50,
   48.6304,        71,
   48.6508,        61,
   48.6712,        74,
   48.6916,        80,
    48.712,        65,
   48.7324,        80,
   48.7527,        68,
   48.7731,        83,
   48.7935,        71,
   48.8139,        70,
   48.8343,        69,
   48.8547,        57,
   48.8751,        65,
   48.8955,        67,
   48.9158,        82,
   48.9362,        72,
   48.9566,        62,
    48.977,        60,
   48.9974,        64,
   49.0178,        66,
   49.0382,        58,
   49.0586,        66,
   49.0789,        76,
   49.0993,        69,
   49.1197,        67,
   49.1401,        58,
   49.1605,        64,
   49.1809,        56,
   49.2013,        64,
   49.2217,        61,
    49.242,        83,
   49.2624,        53,
   49.2828,        64,
   49.3032,        74,
   49.3236,        79,
    49.344,        63,
   49.3644,        78,
   49.3848,        66,
   49.4051,        63,
   49.4255,        62,
   49.4459,        79,
   49.4663,        68,
   49.4867,        69,
   49.5071,        77,
   49.5275,        72,
   49.5479,        69,
   49.5682,        81,
   49.5886,        52,
    49.609,        64,
   49.6294,        54,
   49.6498,        73,
   49.6702,        65,
   49.6906,        83,
    49.711,        56,
   49.7313,        62,
   49.7517,        67,
   49.7721,        64,
   49.7925,        58,
   49.8129,        67,
   49.8333,        59,
   49.8537,        56,
   49.8741,        69,
   49.8944,        72,
   49.9148,        89,
   49.9352,        71,
   49.9556,        64,
    49.976,        57,
   49.9964,        71,
   50.0168,        68,
   50.0372,        66,
   50.0575,        56,
   50.0779,        73,
   50.0983,        70,
   50.1187,        80,
   50.1391,        64,
   50.1595,        65,
   50.1799,        69,
   50.2003,        61,
   50.2206,        70,
    50.241,        56,
   50.2614,        65,
   50.2818,        73,
   50.3022,        67,
   50.3226,        70,
    50.343,        68,
   50.3634,        83,
   50.3837,        59,
   50.4041,        71,
   50.4245,        59,
   50.4449,        67,
   50.4653,        76,
   50.4857,        69,
   50.5061,        81,
   50.5265,        65,
   50.5468,        72,
   50.5672,        68,
   50.5876,        78,
    50.608,        77,
   50.6284,        82,
   50.6488,        71,
   50.6692,        75,
   50.6896,        56,
   50.7099,        65,
   50.7303,        69,
   50.7507,        64,
   50.7711,        75,
   50.7915,        87,
   50.8119,        84,
   50.8323,        70,
   50.8527,        77,
   50.8731,        83,
   50.8934,        82,
   50.9138,        66,
   50.9342,        86,
   50.9546,        88,
    50.975,        85,
   50.9954,       107,
   51.0158,       112,
   51.0362,       108,
   51.0565,       111,
   51.0769,       116,
   51.0973,       114,
   51.1177,       112,
   51.1381,       102,
   51.1585,        96,
   51.1789,       109,
   51.1993,        91,
   51.2196,        81,
     51.24,        87,
   51.2604,        95,
   51.2808,        87,
   51.3012,        83,
   51.3216,        75,
    51.342,        81,
   51.3624,        72,
   51.3827,        72,
   51.4031,        78,
   51.4235,        72,
   51.4439,        75,
   51.4643,        67,
   51.4847,        76,
   51.5051,        68,
   51.5255,        64,
   51.5458,        62,
   51.5662,        65,
   51.5866,        91,
    51.607,        64,
   51.6274,        71,
   51.6478,        64,
   51.6682,        75,
   51.6886,        60,
   51.7089,        66,
   51.7293,        70,
   51.7497,        66,
   51.7701,        78,
   51.7905,        77,
   51.8109,        58,
   51.8313,        55,
   51.8517,        62,
    51.872,        69,
   51.8924,        66,
   51.9128,        62,
   51.9332,        59,
   51.9536,        68,
    51.974,        58,
   51.9944,        64,
   52.0148,        59,
   52.0351,        58,
   52.0555,        50,
   52.0759,        53,
   52.0963,        59,
   52.1167,        44,
   52.1371,        74,
   52.1575,        61,
   52.1779,        65,
   52.1982,        59,
   52.2186,        71,
    52.239,        66,
   52.2594,        56,
   52.2798,        53,
   52.3002,        63,
   52.3206,        73,
    52.341,        58,
   52.3613,        77,
   52.3817,        77,
   52.4021,        66,
   52.4225,        66,
   52.4429,        64,
   52.4633,        54,
   52.4837,        67,
   52.5041,        55,
   52.5244,        77,
   52.5448,        53,
   52.5652,        56,
   52.5856,        55,
    52.606,        54,
   52.6264,        53,
   52.6468,        60,
   52.6672,        57,
   52.6875,        80,
   52.7079,        59,
   52.7283,        67,
   52.7487,        63,
   52.7691,        57,
   52.7895,        62,
   52.8099,        65,
   52.8303,        60,
   52.8506,        68,
    52.871,        72,
   52.8914,        60,
   52.9118,        80,
   52.9322,        61,
   52.9526,        63,
    52.973,        54,
   52.9934,        54,
   53.0137,        46,
   53.0341,        56,
   53.0545,        64,
   53.0749,        54,
   53.0953,        72,
   53.1157,        56,
   53.1361,        74,
   53.1565,        56,
   53.1768,        71,
   53.1972,        53,
   53.2176,        50,
    53.238,        51,
   53.2584,        55,
   53.2788,        61,
   53.2992,        80,
   53.3196,        49,
   53.3399,        65,
   53.3603,        69,
   53.3807,        51,
   53.4011,        58,
   53.4215,        54,
   53.4419,        53,
   53.4623,        70,
   53.4827,        54,
    53.503,        53,
   53.5234,        44,
   53.5438,        60,
   53.5642,        70,
   53.5846,        49,
    53.605,        59,
   53.6254,        52,
   53.6458,        66,
   53.6661,        67,
   53.6865,        65,
   53.7069,        68,
   53.7273,        59,
   53.7477,        58,
   53.7681,        72,
   53.7885,        59,
   53.8089,        52,
   53.8292,        56,
   53.8496,        60,
     53.87,        52,
   53.8904,        54,
   53.9108,        48,
   53.9312,        56,
   53.9516,        62,
    53.972,        75,
   53.9923,        75,
   54.0127,        53,
   54.0331,        60,
   54.0535,        73,
   54.0739,        72,
   54.0943,        55,
   54.1147,        59,
   54.1351,        52,
   54.1554,        61,
   54.1758,        50,
   54.1962,        61,
   54.2166,        67,
    54.237,        69,
   54.2574,        60,
   54.2778,        62,
   54.2982,        53,
   54.3185,        61,
   54.3389,        66,
   54.3593,        60,
   54.3797,        62,
   54.4001,        64,
   54.4205,        49,
   54.4409,        59,
   54.4613,        67,
   54.4816,        73,
    54.502,        72,
   54.5224,        84,
   54.5428,        86,
   54.5632,        82,
   54.5836,        93,
    54.604,        89,
   54.6244,        64,
   54.6447,        71,
   54.6651,        66,
   54.6855,        62,
   54.7059,        52,
   54.7263,        68,
   54.7467,        63,
   54.7671,        57,
   54.7875,        54,
   54.8078,        66,
   54.8282,        37,
   54.8486,        54,
    54.869,        77,
   54.8894,        54,
   54.9098,        65,
   54.9302,        51,
   54.9506,        54,
   54.9709,        54,
   54.9913,        55,
   55.0117,        58,
   55.0321,        54,
   55.0525,        55,
   55.0729,        64,
   55.0933,        64,
   55.1137,        63,
    55.134,        63,
   55.1544,        73,
   55.1748,        57,
   55.1952,        60,
   55.2156,        52,
    55.236,        59,
   55.2564,        55,
   55.2768,        55,
   55.2971,        56,
   55.3175,        62,
   55.3379,        59,
   55.3583,        59,
   55.3787,        54,
   55.3991,        54,
   55.4195,        58,
   55.4399,        65,
   55.4602,        61,
   55.4806,        48,
    55.501,        53,
   55.5214,        46,
   55.5418,        61,
   55.5622,        57,
   55.5826,        54,
    55.603,        62,
   55.6233,        48,
   55.6437,        65,
   55.6641,        55,
   55.6845,        59,
   55.7049,        52,
   55.7253,        71,
   55.7457,        59,
   55.7661,        68,
   55.7864,        54,
   55.8068,        57,
   55.8272,        55,
   55.8476,        61,
    55.868,        51,
   55.8884,        44,
   55.9088,        54,
   55.9292,        55,
   55.9495,        58,
   55.9699,        43,
   55.9903,        51,
   56.0107,        70,
   56.0311,        58,
   56.0515,        66,
   56.0719,        59,
   56.0923,        60,
   56.1126,        61,
    56.133,        62,
   56.1534,        67,
   56.1738,        60,
   56.1942,        57,
   56.2146,        55,
    56.235,        63,
   56.2554,        80,
   56.2757,        65,
   56.2961,        82,
   56.3165,        86,
   56.3369,        97,
   56.3573,       121,
   56.3777,        90,
   56.3981,        91,
   56.4185,        64,
   56.4388,        72,
   56.4592,        68,
   56.4796,        63,
      56.5,        54,
   56.5204,        59,
   56.5408,        59,
   56.5612,        60,
   56.5816,        53,
   56.6019,        48,
   56.6223,        56,
   56.6427,        51,
   56.6631,        57,
   56.6835,        53,
   56.7039,        52,
   56.7243,        49,
   56.7447,        56,
    56.765,        65,
   56.7854,        59,
   56.8058,        62,
   56.8262,        60,
   56.8466,        61,
    56.867,        56,
   56.8874,        52,
   56.9078,        55,
   56.9281,        51,
   56.9485,        41,
   56.9689,        63,
   56.9893,        58,
   57.0097,        54,
   57.0301,        37,
   57.0505,        55,
   57.0709,        49,
   57.0912,        63,
   57.1116,        50,
    57.132,        44,
   57.1524,        63,
   57.1728,        52,
   57.1932,        63,
   57.2136,        56,
    57.234,        73,
   57.2543,        63,
   57.2747,        54,
   57.2951,        45,
   57.3155,        58,
   57.3359,        57,
   57.3563,        53,
   57.3767,        57,
   57.3971,        58,
   57.4174,        52,
   57.4378,        45,
   57.4582,        55,
   57.4786,        54,
    57.499,        56,
   57.5194,        75,
   57.5398,        60,
   57.5602,        60,
   57.5805,        47,
   57.6009,        56,
   57.6213,        68,
   57.6417,        55,
   57.6621,        67,
   57.6825,        57,
   57.7029,        53,
   57.7233,        46,
   57.7436,        41,
    57.764,        40,
   57.7844,        64,
   57.8048,        49,
   57.8252,        53,
   57.8456,        42,
    57.866,        55,
   57.8864,        60,
   57.9067,        53,
   57.9271,        64,
   57.9475,        46,
   57.9679,        47,
   57.9883,        50,
   58.0087,        47,
   58.0291,        60,
   58.0495,        41,
   58.0698,        40,
   58.0902,        55,
   58.1106,        64,
    58.131,        51,
   58.1514,        53,
   58.1718,        62,
   58.1922,        48,
   58.2126,        52,
   58.2329,        44,
   58.2533,        57,
   58.2737,        51,
   58.2941,        55,
   58.3145,        52,
   58.3349,        53,
   58.3553,        57,
   58.3757,        42,
    58.396,        50,
   58.4164,        63,
   58.4368,        60,
   58.4572,        37,
   58.4776,        58,
    58.498,        54,
   58.5184,        51,
   58.5388,        49,
   58.5591,        51,
   58.5795,        61,
   58.5999,        69,
   58.6203,        56,
   58.6407,        55,
   58.6611,        61,
   58.6815,        58,
   58.7019,        58,
   58.7222,        49,
   58.7426,        60,
    58.763,        50,
   58.7834,        55,
   58.8038,        46,
   58.8242,        58,
   58.8446,        51,
    58.865,        54,
   58.8853,        65,
   58.9057,        66,
   58.9261,        61,
   58.9465,        65,
   58.9669,        65,
   58.9873,        71,
   59.0077,        55,
   59.0281,        63,
   59.0484,        54,
   59.0688,        66,
   59.0892,        72,
   59.1096,        61,
     59.13,        67,
   59.1504,        81,
   59.1708,        67,
   59.1912,        63,
   59.2116,        68,
   59.2319,        81,
   59.2523,        69,
   59.2727,        61,
   59.2931,        80,
   59.3135,        67,
   59.3339,        75,
   59.3543,        82,
   59.3747,        81,
    59.395,        86,
   59.4154,        79,
   59.4358,        69,
   59.4562,        84,
   59.4766,        87,
    59.497,        84,
   59.5174,        91,
   59.5378,        66,
   59.5581,        64,
   59.5785,        84,
   59.5989,        79,
   59.6193,        80,
   59.6397,        76,
   59.6601,        75,
   59.6805,        77,
   59.7009,        75,
   59.7212,        71,
   59.7416,        80,
    59.762,        75,
   59.7824,        80,
   59.8028,        78,
   59.8232,        81,
   59.8436,        66,
    59.864,        98,
   59.8843,        87,
   59.9047,        80,
   59.9251,        92,
   59.9455,        76,
   59.9659,        81,
   59.9863,        93,
   60.0067,        74,
   60.0271,        69,
   60.0474,        81,
   60.0678,        90,
   60.0882,        64,
   60.1086,        77,
    60.129,        79,
   60.1494,        73,
   60.1698,        87,
   60.1902,        79,
   60.2105,        84,
   60.2309,        69,
   60.2513,        76,
   60.2717,        88,
   60.2921,        88,
   60.3125,       100,
   60.3329,        79,
   60.3533,        80,
   60.3736,        87,
    60.394,        83,
   60.4144,        73,
   60.4348,        83,
   60.4552,        89,
   60.4756,        98,
    60.496,       100,
   60.5164,        89,
   60.5367,        80,
   60.5571,       104,
   60.5775,        86,
   60.5979,       102,
   60.6183,        84,
   60.6387,       103,
   60.6591,       100,
   60.6795,       100,
   60.6998,       118,
   60.7202,       111,
   60.7406,       127,
    60.761,       109,
   60.7814,       100,
   60.8018,       106,
   60.8222,        85,
   60.8426,       119,
   60.8629,       104,
   60.8833,        93,
   60.9037,        98,
   60.9241,        89,
   60.9445,       108,
   60.9649,       114,
   60.9853,       101,
   61.0057,        88,
    61.026,       102,
   61.0464,       105,
   61.0668,        84,
   61.0872,        98,
   61.1076,        95,
    61.128,       114,
   61.1484,       120,
   61.1688,       108,
   61.1891,       110,
   61.2095,       130,
   61.2299,       101,
   61.2503,       103,
   61.2707,        92,
   61.2911,       103,
   61.3115,       108,
   61.3319,        99,
   61.3522,       118,
   61.3726,       109,
    61.393,       106,
   61.4134,       106,
   61.4338,       118,
   61.4542,        92,
   61.4746,       100,
    61.495,       100,
   61.5153,       133,
   61.5357,       115,
   61.5561,       147,
   61.5765,       126,
   61.5969,       189,
   61.6173,       210,
   61.6377,       298,
   61.6581,       458,
   61.6784,       786,
   61.6988,      1161,
   61.7192,      1136,
   61.7396,       736,
     61.76,       397,
   61.7804,       273,
   61.8008,       199,
   61.8212,       157,
   61.8415,       159,
   61.8619,       133,
   61.8823,       126,
   61.9027,       158,
   61.9231,       123,
   61.9435,       139,
   61.9639,       131,
   61.9843,       135,
   62.0046,       137,
    62.025,       128,
   62.0454,       123,
   62.0658,       101,
   62.0862,        94,
   62.1066,       109,
    62.127,       103,
   62.1474,       110,
   62.1677,       103,
   62.1881,       120,
   62.2085,       106,
   62.2289,       103,
   62.2493,       109,
   62.2697,       111,
   62.2901,       122,
   62.3105,       101,
   62.3308,       122,
   62.3512,       104,
   62.3716,        99,
    62.392,       112,
   62.4124,       111,
   62.4328,       107,
   62.4532,        96,
   62.4736,        95,
   62.4939,        99,
   62.5143,       109,
   62.5347,       118,
   62.5551,        90,
   62.5755,       114,
   62.5959,       120,
   62.6163,        99,
   62.6367,       115,
    62.657,        94,
   62.6774,       104,
   62.6978,       101,
   62.7182,        99,
   62.7386,       131,
    62.759,        97,
   62.7794,       109,
   62.7998,       109,
   62.8201,       114,
   62.8405,       101,
   62.8609,       105,
   62.8813,        94,
   62.9017,       108,
   62.9221,       110,
   62.9425,       113,
   62.9629,       114,
   62.9832,       104,
   63.0036,       100,
    63.024,       103,
   63.0444,       102,
   63.0648,       111,
   63.0852,        96,
   63.1056,        91,
    63.126,        97,
   63.1463,       120,
   63.1667,       106,
   63.1871,        86,
   63.2075,       111,
   63.2279,        90,
   63.2483,        99,
   63.2687,        89,
   63.2891,        81,
   63.3094,        95,
   63.3298,       113,
   63.3502,       117,
   63.3706,       112,
    63.391,        99,
   63.4114,       107,
   63.4318,       109,
   63.4522,       105,
   63.4725,        91,
   63.4929,        86,
   63.5133,        90,
   63.5337,        88,
   63.5541,        99,
   63.5745,       107,
   63.5949,        92,
   63.6153,       111,
   63.6356,       113,
    63.656,        94,
   63.6764,        96,
   63.6968,        94,
   63.7172,       105,
   63.7376,       124,
    63.758,       100,
   63.7784,       100,
   63.7987,        97,
   63.8191,       113,
   63.8395,       119,
   63.8599,       115,
   63.8803,       116,
   63.9007,       105,
   63.9211,       116,
   63.9415,       115,
   63.9618,       122,
   63.9822,       118,
   64.0026,        97,
    64.023,        98,
   64.0434,       119,
   64.0638,       108,
   64.0842,       102,
   64.1046,       102,
   64.1249,       116,
   64.1453,       119,
   64.1657,       106,
   64.1861,       104,
   64.2065,       110,
   64.2269,       120,
   64.2473,        95,
   64.2677,       113,
    64.288,        99,
   64.3084,       124,
   64.3288,       112,
   64.3492,        94,
   64.3696,       103,
     64.39,        99,
   64.4104,       119,
   64.4308,       114,
   64.4511,        94,
   64.4715,       104,
   64.4919,       113,
   64.5123,       124,
   64.5327,       111,
   64.5531,        86,
   64.5735,       102,
   64.5939,       113,
   64.6142,       108,
   64.6346,        93,
    64.655,       107,
   64.6754,       103,
   64.6958,        74,
   64.7162,       109,
   64.7366,       113,
    64.757,       113,
   64.7773,        95,
   64.7977,        93,
   64.8181,        95,
   64.8385,       104,
   64.8589,       121,
   64.8793,        98,
   64.8997,       102,
   64.9201,        91,
   64.9404,       108,
   64.9608,        86,
   64.9812,        90,
   65.0016,       103,
